,Time,Force (Newtons),Distance (millimeters)
0,1,0.0007010656405200061,9.765625e-05
1,9,0.0007010656405200061,9.765625e-05
2,17,0.0007010656405200061,9.765625e-05
3,26,0.0007010656405200061,9.765625e-05
4,32,0.0007010656405200061,9.765625e-05
5,41,0.0007010656405200061,0.0001953125
6,48,0.0007010656405200061,0.0001953125
7,57,0.0007010656405200061,0.0001953125
8,65,0.0007010656405200061,0.0001953125
9,73,0.0007010656405200061,0.00029296875
10,80,0.0005873085005200061,0.00029296875
11,89,0.0006657617005200061,0.000390625
12,95,0.0006657617005200061,0.000390625
13,104,0.0006657617005200061,0.000390625
14,111,0.0006657617005200061,0.00048828125
15,120,0.0006657617005200061,0.00048828125
16,128,0.0006657617005200061,0.0005859375
17,136,0.0006657617005200061,0.0006835937500000001
18,144,0.0006657617005200061,0.0006835937500000001
19,199,0.0006490903955200062,0.001171875
20,215,0.0006490903955200062,0.0013671875000000001
21,222,0.0006490903955200062,0.0013671875000000001
22,231,0.0006490903955200062,0.00146484375
23,239,0.0006490903955200062,0.0015625
24,246,0.0006490903955200062,0.0016601562500000002
25,254,0.0006490903955200062,0.0017578124999999998
26,262,0.0006490903955200062,0.00185546875
27,268,0.0006490903955200062,0.001953125
28,276,0.0004235374455200062,0.00205078125
29,283,0.0004235374455200062,0.0021484375
30,291,0.0004235374455200062,0.0022460937500000003
31,297,0.0004235374455200062,0.00234375
32,304,0.0004235374455200062,0.00244140625
33,311,0.0004235374455200062,0.0025390625
34,319,0.0004235374455200062,0.00263671875
35,325,0.0004235374455200062,0.0027343750000000003
36,332,0.0004235374455200062,0.00283203125
37,340,0.0004235374455200062,0.00302734375
38,347,0.0004235374455200062,0.003125
39,355,0.0004235374455200062,0.0032226562500000003
40,362,0.0004235374455200062,0.0033203125000000003
41,368,0.00036175555052000616,0.00341796875
42,376,0.00024407575052000615,0.00361328125
43,382,0.00024407575052000615,0.0037109375
44,389,0.00024407575052000615,0.0038085937500000003
45,396,0.00024407575052000615,0.00390625
46,405,0.00024407575052000615,0.0041015625
47,411,0.00024407575052000615,0.00419921875
48,420,0.00024407575052000615,0.00439453125
49,426,0.00024407575052000615,0.0044921875000000005
50,433,0.00024407575052000615,0.0046875
51,441,0.00024407575052000615,0.00478515625
52,448,0.00024407575052000615,0.00498046875
53,456,0.00024407575052000615,0.005078125
54,462,0.00024407575052000615,0.0052734375
55,470,0.00016562255052000614,0.00537109375
56,476,0.00016562255052000614,0.005566406249999999
57,483,0.00016562255052000614,0.0056640625
58,491,0.00016562255052000614,0.005859375
59,497,0.00016562255052000614,0.0060546875
60,504,0.00016562255052000614,0.00615234375
61,510,0.00016562255052000614,0.00634765625
62,517,0.00016562255052000614,0.0064453125000000005
63,524,0.00016562255052000614,0.006640625000000001
64,532,0.00016562255052000614,0.0068359375
65,539,0.00016562255052000614,0.007031249999999999
66,546,0.00016562255052000614,0.00712890625
67,554,0.00016562255052000614,0.00732421875
68,561,0.00016562255052000614,0.00751953125
69,567,0.00037548486052000615,0.00771484375
70,575,0.00037548486052000615,0.007910156250000001
71,582,0.00037548486052000615,0.008105468749999999
72,591,0.00037548486052000615,0.00830078125
73,598,0.00037548486052000615,0.00849609375
74,607,0.00037548486052000615,0.0087890625
75,613,0.00037548486052000615,0.00888671875
76,669,0.0009246572605200061,0.010546875
77,684,0.0009246572605200061,0.011035156249999999
78,703,0.0009246572605200061,0.011621093749999999
79,711,0.0009246572605200061,0.01181640625
80,718,0.0009246572605200061,0.012109375
81,726,0.0009246572605200061,0.0123046875
82,734,0.0009246572605200061,0.01259765625
83,743,0.0009246572605200061,0.012890625000000001
84,750,0.0009246572605200061,0.0130859375
85,759,0.0013404592205200061,0.013378906250000001
86,766,0.001732725220520006,0.013671875
87,774,0.001732725220520006,0.013964843749999999
88,782,0.001732725220520006,0.0142578125
89,791,0.001732725220520006,0.01455078125
90,798,0.001732725220520006,0.01474609375
91,805,0.001732725220520006,0.0150390625
92,813,0.001732725220520006,0.015332031250000001
93,821,0.001732725220520006,0.015625
94,829,0.001732725220520006,0.015917968749999997
95,837,0.001732725220520006,0.016210937499999998
96,845,0.001732725220520006,0.01650390625
97,851,0.001732725220520006,0.01669921875
98,859,0.002814398715520006,0.0169921875
99,867,0.002814398715520006,0.01728515625
100,875,0.002814398715520006,0.01767578125
101,883,0.002814398715520006,0.017968750000000002
102,890,0.002814398715520006,0.018261718750000003
103,898,0.002814398715520006,0.0185546875
104,906,0.002814398715520006,0.01884765625
105,912,0.002814398715520006,0.019140625
106,921,0.002814398715520006,0.01953125
107,929,0.002814398715520006,0.019824218749999997
108,936,0.002814398715520006,0.0201171875
109,943,0.002814398715520006,0.02041015625
110,951,0.0034057397105200058,0.020703125000000003
111,959,0.004052978610520006,0.02109375
112,967,0.004052978610520006,0.02138671875
113,974,0.004052978610520006,0.021679687500000003
114,982,0.004052978610520006,0.022070312499999998
115,989,0.004052978610520006,0.02236328125
116,997,0.004052978610520006,0.02275390625
117,1006,0.004052978610520006,0.023046874999999998
118,1013,0.004052978610520006,0.0234375
119,1022,0.004052978610520006,0.023828125
120,1029,0.004052978610520006,0.024121093750000003
121,1037,0.004052978610520006,0.024511718749999998
122,1045,0.004857123910520006,0.02490234375
123,1053,0.004857123910520006,0.02529296875
124,1060,0.005674998520520006,0.025585937500000003
125,1066,0.005674998520520006,0.02587890625
126,1075,0.005674998520520006,0.02626953125
127,1083,0.005674998520520006,0.02666015625
128,1091,0.005674998520520006,0.02705078125
129,1098,0.005674998520520006,0.02734375
130,1106,0.005674998520520006,0.02783203125
131,1113,0.005674998520520006,0.028124999999999997
132,1122,0.005674998520520006,0.02861328125
133,1130,0.005674998520520006,0.029003906250000003
134,1137,0.005674998520520006,0.029394531249999998
135,1145,0.006677238150520006,0.0296875
136,1153,0.007664767805520006,0.03017578125
137,1161,0.007664767805520006,0.030566406249999997
138,1171,0.007664767805520006,0.0310546875
139,1178,0.007664767805520006,0.0314453125
140,1187,0.007664767805520006,0.03193359375
141,1194,0.007664767805520006,0.0322265625
142,1202,0.007664767805520006,0.03271484375
143,1210,0.007664767805520006,0.03310546875
144,1217,0.007664767805520006,0.033496093750000004
145,1225,0.007664767805520006,0.03388671875
146,1232,0.007664767805520006,0.034277343749999994
147,1241,0.008722905340520006,0.034765625
148,1249,0.009828114795520005,0.03525390625
149,1258,0.009828114795520005,0.0357421875
150,1266,0.009828114795520005,0.03623046875
151,1274,0.009828114795520005,0.03662109375
152,1282,0.009828114795520005,0.037109375
153,1289,0.009828114795520005,0.0375
154,1297,0.009828114795520005,0.037890625
155,1305,0.009828114795520005,0.038378906250000004
156,1313,0.009828114795520005,0.0388671875
157,1321,0.009828114795520005,0.039355468750000004
158,1329,0.009828114795520005,0.03974609375
159,1337,0.010981376835520007,0.040234375
160,1344,0.010981376835520007,0.040625
161,1351,0.012176807470520004,0.04111328125
162,1359,0.012176807470520004,0.041601562499999994
163,1367,0.012176807470520004,0.0419921875
164,1375,0.012176807470520004,0.04248046875
165,1381,0.012176807470520004,0.04287109375
166,1390,0.012176807470520004,0.04345703125
167,1398,0.012176807470520004,0.0439453125
168,1406,0.012176807470520004,0.04443359375
169,1414,0.012176807470520004,0.044921875
170,1422,0.012176807470520004,0.04541015625
171,1431,0.013436961995520007,0.0458984375
172,1438,0.013436961995520007,0.046484374999999994
173,1446,0.014784395705520004,0.046875
174,1454,0.014784395705520004,0.04736328125
175,1511,0.014784395705520004,0.051171875000000006
176,1521,0.014784395705520004,0.051855468749999994
177,1529,0.016017091610520003,0.05234375
178,1538,0.016017091610520003,0.0529296875
179,1545,0.017547909675520005,0.053417968749999996
180,1553,0.017547909675520005,0.054003906250000004
181,1561,0.017547909675520005,0.0544921875
182,1569,0.017547909675520005,0.055078125
183,1577,0.017547909675520005,0.055566406250000006
184,1584,0.017547909675520005,0.05615234375
185,1592,0.017547909675520005,0.056640625
186,1599,0.017547909675520005,0.05712890625
187,1607,0.017547909675520005,0.05771484375
188,1615,0.017547909675520005,0.058300781249999996
189,1623,0.019016945845520005,0.058886718750000004
190,1631,0.019016945845520005,0.05947265625
191,1639,0.019016945845520005,0.06005859375
192,1647,0.020732128930520007,0.060546875
193,1658,0.020732128930520007,0.061328125000000004
194,1665,0.020732128930520007,0.0619140625
195,1674,0.020732128930520007,0.0625
196,1682,0.020732128930520007,0.06318359375
197,1691,0.020732128930520007,0.06376953125
198,1698,0.020732128930520007,0.06435546875
199,1707,0.020732128930520007,0.06494140625
200,1714,0.020732128930520007,0.06552734375
201,1723,0.02238062679552,0.06611328124999999
202,1730,0.02238062679552,0.06669921875
203,1758,0.024171321085520003,0.06884765625
204,1765,0.024171321085520003,0.06943359375000001
205,1773,0.024171321085520003,0.07001953125
206,1781,0.024171321085520003,0.07060546875000001
207,1790,0.024171321085520003,0.07138671875
208,1798,0.024171321085520003,0.07197265625
209,1807,0.024171321085520003,0.07265625
210,1814,0.024171321085520003,0.0732421875
211,1822,0.02609636648052001,0.073828125
212,1830,0.02609636648052001,0.07451171875
213,1837,0.02808613576552,0.07509765625
214,1846,0.02808613576552,0.07578125
215,1854,0.02808613576552,0.0763671875
216,1861,0.02808613576552,0.07705078124999999
217,1869,0.02808613576552,0.077734375
218,1878,0.02808613576552,0.07832031249999999
219,1885,0.02808613576552,0.07900390625
220,1894,0.02808613576552,0.0796875
221,1901,0.02808613576552,0.08037109375000001
222,1912,0.02808613576552,0.08125
223,1921,0.030360297900520004,0.08203125
224,1929,0.030360297900520004,0.08271484375
225,1938,0.03259523343552,0.08339843749999999
226,1945,0.03259523343552,0.08408203125
227,1954,0.03259523343552,0.084765625
228,1962,0.03259523343552,0.08544921875
229,1969,0.03259523343552,0.0861328125
230,1978,0.03259523343552,0.08681640625
231,1985,0.03259523343552,0.08750000000000001
232,1994,0.03259523343552,0.08818359375
233,2001,0.03259523343552,0.0888671875
234,2010,0.03507141256052,0.0896484375
235,2017,0.03507141256052,0.090234375
236,2025,0.03507141256052,0.091015625
237,2033,0.03755739833552,0.09169921875
238,2042,0.03755739833552,0.09248046875
239,2049,0.03755739833552,0.09306640625
240,2057,0.03755739833552,0.09384765625
241,2065,0.03755739833552,0.09453125
242,2074,0.03755739833552,0.09541015624999999
243,2082,0.03755739833552,0.09609375
244,2091,0.03755739833552,0.096875
245,2098,0.03755739833552,0.09755859375
246,2107,0.04039348151552,0.09833984375
247,2114,0.04039348151552,0.0990234375
248,2123,0.04039348151552,0.09990234375000001
249,2131,0.04346002097052001,0.1005859375
250,2140,0.04346002097052001,0.10146484375
251,2148,0.04346002097052001,0.10214843750000001
252,2157,0.04346002097052001,0.10302734375
253,2164,0.04346002097052001,0.10371093749999999
254,2173,0.04346002097052001,0.10458984375000001
255,2180,0.04346002097052001,0.1052734375
256,2190,0.04346002097052001,0.10615234374999999
257,2197,0.04346002097052001,0.10683593749999999
258,2207,0.046830566575520004,0.10781249999999999
259,2214,0.046830566575520004,0.10849609375
260,2224,0.046830566575520004,0.10947265625000001
261,2232,0.05042176180552001,0.11025390624999999
262,2241,0.05042176180552001,0.11113281250000001
263,2249,0.05042176180552001,0.11191406250000001
264,2259,0.05042176180552001,0.11289062500000001
265,2266,0.05042176180552001,0.11357421875000001
266,2275,0.05042176180552001,0.114453125
267,2283,0.05042176180552001,0.115234375
268,2293,0.05042176180552001,0.1162109375
269,2300,0.054220858015520006,0.11699218750000001
270,2309,0.054220858015520006,0.11787109375
271,2317,0.054220858015520006,0.11865234375
272,2326,0.058257275155520004,0.11962890625
273,2334,0.058257275155520004,0.12041015625
274,2343,0.058257275155520004,0.1212890625
275,2352,0.058257275155520004,0.1220703125
276,2360,0.058257275155520004,0.12294921875
277,2369,0.058257275155520004,0.123828125
278,2377,0.058257275155520004,0.124609375
279,2384,0.058257275155520004,0.125390625
280,2392,0.058257275155520004,0.126171875
281,2399,0.06261338908552,0.12685546875
282,2408,0.06261338908552,0.12783203125
283,2416,0.06261338908552,0.12861328125
284,2425,0.06732450374552,0.1294921875
285,2434,0.06732450374552,0.1302734375
286,2442,0.06732450374552,0.13115234375
287,2450,0.06732450374552,0.13193359375
288,2459,0.06732450374552,0.13291015625
289,2467,0.06732450374552,0.13369140625
290,2476,0.06732450374552,0.13457031249999998
291,2483,0.06732450374552,0.13525390625
292,2492,0.07256910016552,0.13623046875
293,2500,0.07256910016552,0.13701171874999998
294,2509,0.07256910016552,0.137890625
295,2518,0.07256910016552,0.138671875
296,2526,0.07826774448052,0.13955078124999998
297,2535,0.07826774448052,0.1404296875
298,2543,0.07826774448052,0.14121093750000002
299,2552,0.07826774448052,0.1421875
300,2560,0.07826774448052,0.14296875
301,2567,0.07826774448052,0.14365234375000002
302,2575,0.07826774448052,0.14443359374999998
303,2583,0.07826774448052,0.1453125
304,2592,0.08440768804552001,0.14619140625000002
305,2601,0.08440768804552001,0.14697265625
306,2610,0.08440768804552001,0.14794921875
307,2618,0.08440768804552001,0.14873046875
308,2626,0.09129293701052,0.149609375
309,2634,0.09129293701052,0.150390625
310,2643,0.09129293701052,0.15126953125
311,2651,0.09129293701052,0.15205078125
312,2660,0.09129293701052,0.1529296875
313,2676,0.09129293701052,0.15458984375
314,2685,0.09916571563052,0.15546875
315,2696,0.09916571563052,0.15654296875
316,2705,0.09916571563052,0.15751953124999998
317,2714,0.09916571563052,0.15830078125000002
318,2722,0.10816331700552,0.1591796875
319,2730,0.10816331700552,0.15996093749999998
320,2739,0.10816331700552,0.16083984375
321,2748,0.10816331700552,0.16171875
322,2756,0.10816331700552,0.16259765625
323,2765,0.10816331700552,0.16347656249999998
324,2773,0.10816331700552,0.1642578125
325,2782,0.11877215097552,0.16513671875
326,2791,0.11877215097552,0.166015625
327,2799,0.11877215097552,0.16679687499999998
328,2808,0.11877215097552,0.1677734375
329,2817,0.13106772874552,0.16855468750000002
330,2826,0.13106772874552,0.16953125
331,2834,0.13106772874552,0.1703125
332,2843,0.13106772874552,0.17119140625
333,2851,0.13106772874552,0.17197265625
334,2905,0.14580123970551997,0.17744140625000002
335,2924,0.16373956388552,0.17939453125000002
336,2933,0.16373956388552,0.18027343750000002
337,2942,0.16373956388552,0.18125
338,2951,0.16373956388552,0.18203125
339,2960,0.16373956388552,0.18291015625
340,2967,0.16373956388552,0.18369140625
341,2976,0.18888381448552,0.1845703125
342,2985,0.18888381448552,0.18544921874999998
343,2994,0.18888381448552,0.18632812499999998
344,3002,0.18888381448552,0.187109375
345,3011,0.18888381448552,0.18808593750000002
346,3020,0.22122516552052,0.18896484375
347,3029,0.22122516552052,0.18984375
348,3038,0.22122516552052,0.19072265625
349,3047,0.22122516552052,0.19160156250000002
350,3055,0.22122516552052,0.19248046875000002
351,3064,0.22122516552052,0.193359375
352,3073,0.26841378465552,0.19423828125
353,3082,0.26841378465552,0.1951171875
354,3091,0.26841378465552,0.19599609375
355,3099,0.26841378465552,0.196875
356,3107,0.26841378465552,0.19765624999999998
357,3116,0.3302653068705201,0.19853515624999998
358,3124,0.3302653068705201,0.19941406250000002
359,3133,0.3302653068705201,0.20029296875000002
360,3141,0.3302653068705201,0.20107421875
361,3149,0.3302653068705201,0.20185546875000002
362,3159,0.3302653068705201,0.20283203125
363,3168,0.42021778466052,0.2037109375
364,3177,0.42021778466052,0.20458984375
365,3185,0.42021778466052,0.20546874999999998
366,3194,0.42021778466052,0.20634765624999998
367,3204,0.42021778466052,0.20732421875
368,3212,0.53654524762552,0.208203125
369,3221,0.53654524762552,0.20908203125
370,3230,0.53654524762552,0.2099609375
371,3240,0.53654524762552,0.2109375
372,3249,0.53654524762552,0.21181640625
373,3259,0.53654524762552,0.21279296874999998
374,3268,0.6900242234505201,0.21367187499999998
375,3277,0.6900242234505201,0.2146484375
376,3285,0.6900242234505201,0.2154296875
377,3294,0.6900242234505201,0.21640625
378,3302,0.6900242234505201,0.21708984375
379,3310,0.87269857699052,0.21796875
380,3320,0.87269857699052,0.21884765625
381,3328,0.87269857699052,0.2197265625
382,3336,0.87269857699052,0.22050781249999998
383,3344,0.87269857699052,0.22138671875000002
384,3352,0.87269857699052,0.22216796875
385,3361,1.0859275099355197,0.22294921874999998
386,3369,1.0859275099355197,0.22382812500000002
387,3377,1.0859275099355197,0.22470703125000002
388,3386,1.0859275099355197,0.2255859375
389,3395,1.0859275099355197,0.22646484375
390,3405,1.3293432729105197,0.22734375
391,3413,1.3293432729105197,0.22822265625000002
392,3422,1.3293432729105197,0.22910156250000002
393,3430,1.3293432729105197,0.22998046875
394,3438,1.3293432729105197,0.23076171874999998
395,3447,1.3293432729105197,0.231640625
396,3456,1.6016641367605196,0.23251953125
397,3464,1.6016641367605196,0.23330078125
398,3473,1.6016641367605196,0.2341796875
399,3481,1.6016641367605196,0.23505859375
400,3490,1.6016641367605196,0.2359375
401,3498,1.6016641367605196,0.23671874999999998
402,3507,1.9037560286805197,0.2376953125
403,3516,1.9037560286805197,0.23857421875
404,3524,1.9037560286805197,0.23935546875000002
405,3533,1.9037560286805197,0.240234375
406,3541,1.9037560286805197,0.24111328125
407,3550,2.2178443955455194,0.2419921875
408,3560,2.2178443955455194,0.24287109375000002
409,3568,2.2178443955455194,0.24375000000000002
410,3576,2.2178443955455194,0.24453124999999998
411,3584,2.2178443955455194,0.24541015624999998
412,3593,2.2178443955455194,0.2462890625
413,3602,2.54868644327052,0.24716796875
414,3612,2.54868644327052,0.248046875
415,3622,2.54868644327052,0.24912109375000002
416,3630,2.54868644327052,0.24990234375
417,3639,2.54868644327052,0.25078125
418,3647,2.8791244570155206,0.25166015625
419,3656,2.8791244570155206,0.2525390625
420,3665,2.8791244570155206,0.25341796875
421,3675,2.8791244570155206,0.25449218749999997
422,3684,2.8791244570155206,0.25537109375
423,3692,2.8791244570155206,0.25615234375
424,3701,3.2300495432755203,0.25703125
425,3710,3.2300495432755203,0.25800781250000004
426,3719,3.2300495432755203,0.25888671875
427,3728,3.2300495432755203,0.259765625
428,3736,3.2300495432755203,0.260546875
429,3745,3.58590149049552,0.26142578125
430,3756,3.58590149049552,0.2625
431,3764,3.58590149049552,0.26337890625
432,3773,3.58590149049552,0.26425781249999997
433,3782,3.58590149049552,0.26513671875
434,3791,3.58590149049552,0.266015625
435,3799,3.95925928863052,0.26689453124999996
436,3808,3.95925928863052,0.26777343750000004
437,3818,3.95925928863052,0.26865234375
438,3826,3.95925928863052,0.26953125
439,3834,3.95925928863052,0.2703125
440,3842,4.32319878010552,0.27119140625
441,3851,4.32319878010552,0.2720703125
442,3860,4.32319878010552,0.27294921875
443,3869,4.32319878010552,0.273828125
444,3879,4.32319878010552,0.2748046875
445,3888,4.32319878010552,0.27568359375
446,3896,4.69863951070052,0.2765625
447,3905,4.69863951070052,0.27744140625
448,3913,4.69863951070052,0.27822265625
449,3922,4.69863951070052,0.27919921875
450,3931,4.69863951070052,0.27998046875000004
451,3940,5.071521686310519,0.280859375
452,3948,5.071521686310519,0.28173828125
453,3957,5.071521686310519,0.28261718750000003
454,3965,5.071521686310519,0.2833984375
455,3974,5.071521686310519,0.28427734375
456,3982,5.071521686310519,0.28515625
457,3991,5.46930098494052,0.28603515625
458,3999,5.46930098494052,0.28681640625
459,4007,5.46930098494052,0.2876953125
460,4016,5.46930098494052,0.2884765625
461,4025,5.46930098494052,0.289453125
