,Time,Force (Newtons),Distance (millimeters)
0,2,0.0007326352082000018,9.765625e-05
1,14,0.0007326352082000018,9.765625e-05
2,20,0.0007326352082000018,9.765625e-05
3,27,0.0007326352082000018,9.765625e-05
4,33,0.0007326352082000018,9.765625e-05
5,38,0.0007326352082000018,9.765625e-05
6,43,0.0007277318832000018,0.0001953125
7,48,0.0007277318832000018,0.0001953125
8,52,0.0007277318832000018,0.0001953125
9,56,0.0007277318832000018,0.0001953125
10,61,0.0007277318832000018,0.0001953125
11,66,0.0007277318832000018,0.0001953125
12,70,0.0007277318832000018,0.00029296875
13,74,0.0007277318832000018,0.00029296875
14,80,0.0007277318832000018,0.00029296875
15,84,0.0007277318832000018,0.00029296875
16,90,0.0007277318832000018,0.000390625
17,94,0.0007277318832000018,0.000390625
18,99,0.0007277318832000018,0.000390625
19,104,0.0007277318832000018,0.000390625
20,109,0.0007277318832000018,0.00048828125
21,115,0.0007277318832000018,0.00048828125
22,119,0.0007277318832000018,0.00048828125
23,124,0.0007277318832000018,0.0005859375
24,129,0.0007277318832000018,0.0005859375
25,134,0.0007277318832000018,0.0005859375
26,138,0.0006100520832000017,0.0006835937500000001
27,143,0.0006100520832000017,0.0006835937500000001
28,148,0.0006100520832000017,0.0006835937500000001
29,154,0.0006100520832000017,0.00078125
30,159,0.0006100520832000017,0.00078125
31,163,0.0006100520832000017,0.0008789062499999999
32,168,0.0006100520832000017,0.0008789062499999999
33,173,0.0006100520832000017,0.0008789062499999999
34,179,0.0006100520832000017,0.0009765625
35,188,0.0006100520832000017,0.00107421875
36,198,0.0006100520832000017,0.001171875
37,204,0.0006100520832000017,0.001171875
38,211,0.0006100520832000017,0.00126953125
39,216,0.0006100520832000017,0.0013671875000000001
40,220,0.0006100520832000017,0.0013671875000000001
41,225,0.0006100520832000017,0.00146484375
42,230,0.0006100520832000017,0.00146484375
43,235,0.0005345408782000017,0.0015625
44,240,0.0005345408782000017,0.0015625
45,245,0.0005345408782000017,0.0016601562500000002
46,250,0.0005345408782000017,0.0017578124999999998
47,254,0.0005345408782000017,0.0017578124999999998
48,258,0.0005345408782000017,0.00185546875
49,262,0.0005345408782000017,0.00185546875
50,266,0.0005345408782000017,0.00185546875
51,270,0.0005345408782000017,0.001953125
52,274,0.0005345408782000017,0.00205078125
53,278,0.0005345408782000017,0.00205078125
54,283,0.0005345408782000017,0.0021484375
55,287,0.0005345408782000017,0.0021484375
56,291,0.0005345408782000017,0.0022460937500000003
57,295,0.0005345408782000017,0.0022460937500000003
58,299,0.0005345408782000017,0.00234375
59,303,0.0005345408782000017,0.00244140625
60,308,0.0005345408782000017,0.00244140625
61,313,0.0005345408782000017,0.0025390625
62,317,0.0005345408782000017,0.00263671875
63,321,0.0005345408782000017,0.00263671875
64,325,0.0005345408782000017,0.0027343750000000003
65,330,0.0004354937132000017,0.00283203125
66,334,0.0004354937132000017,0.00283203125
67,337,0.0004354937132000017,0.0029296875
68,345,0.0004354937132000017,0.00302734375
69,353,0.0004354937132000017,0.003125
70,359,0.0004354937132000017,0.0032226562500000003
71,365,0.0004354937132000017,0.00341796875
72,370,0.0004354937132000017,0.00341796875
73,375,0.0004354937132000017,0.0035156249999999997
74,379,0.0004354937132000017,0.00361328125
75,384,0.0004354937132000017,0.0037109375
76,389,0.0004354937132000017,0.0038085937500000003
77,394,0.0004354937132000017,0.00390625
78,398,0.0004354937132000017,0.00390625
79,403,0.0004354937132000017,0.00400390625
80,408,0.0004354937132000017,0.0041015625
81,412,0.0004354937132000017,0.00419921875
82,417,0.0004354937132000017,0.004296875
83,422,0.00038449913320000165,0.00439453125
84,427,0.00038449913320000165,0.0044921875000000005
85,431,0.00038449913320000165,0.004589843749999999
86,436,0.00038449913320000165,0.0046875
87,440,0.00038449913320000165,0.00478515625
88,445,0.00038449913320000165,0.0048828125
89,449,0.00038449913320000165,0.00498046875
90,453,0.00038449913320000165,0.00498046875
91,457,0.00038449913320000165,0.005078125
92,461,0.00038449913320000165,0.005175781250000001
93,465,0.00038449913320000165,0.0052734375
94,470,0.00038449913320000165,0.00537109375
95,475,0.00038449913320000165,0.0054687500000000005
96,480,0.00038449913320000165,0.005566406249999999
97,484,0.00038449913320000165,0.0056640625
98,489,0.00038449913320000165,0.0057617187499999995
99,494,0.00038449913320000165,0.005859375
100,498,0.00038449913320000165,0.00595703125
101,505,0.00038449913320000165,0.00615234375
102,514,0.00038449913320000165,0.00634765625
103,522,0.0004168610782000017,0.00654296875
104,528,0.0004168610782000017,0.006640625000000001
105,534,0.0004168610782000017,0.0068359375
106,539,0.0004168610782000017,0.00693359375
107,544,0.0004168610782000017,0.00712890625
108,549,0.0004168610782000017,0.0072265625
109,554,0.0004168610782000017,0.00732421875
110,559,0.0004168610782000017,0.007421875
111,564,0.0004168610782000017,0.007617187500000001
112,569,0.0004168610782000017,0.00771484375
113,574,0.0004168610782000017,0.0078125
114,579,0.0004168610782000017,0.0080078125
115,583,0.0004168610782000017,0.008105468749999999
116,588,0.0004168610782000017,0.008203125
117,593,0.0004168610782000017,0.00830078125
118,598,0.0004168610782000017,0.00849609375
119,602,0.0004168610782000017,0.00859375
120,607,0.0004168610782000017,0.00869140625
121,612,0.0005306182182000016,0.00888671875
122,617,0.0005306182182000016,0.008984375000000001
123,621,0.0005306182182000016,0.00908203125
124,626,0.0005306182182000016,0.00927734375
125,631,0.0005306182182000016,0.009375
126,636,0.0005306182182000016,0.0095703125
127,641,0.0005306182182000016,0.00966796875
128,646,0.0005306182182000016,0.00986328125
129,651,0.0005306182182000016,0.0099609375
130,657,0.0005306182182000016,0.01015625
131,661,0.0005306182182000016,0.01025390625
132,666,0.0005306182182000016,0.010449218750000001
133,671,0.0005306182182000016,0.010546875
134,681,0.0005306182182000016,0.010839843750000001
135,690,0.0005306182182000016,0.011132812499999999
136,694,0.0005306182182000016,0.01123046875
137,701,0.0005306182182000016,0.01142578125
138,705,0.0005306182182000016,0.011621093749999999
139,710,0.0006757566382000016,0.01181640625
140,715,0.0006757566382000016,0.0119140625
141,720,0.0006757566382000016,0.012109375
142,725,0.0006757566382000016,0.0123046875
143,730,0.0006757566382000016,0.01240234375
144,735,0.0006757566382000016,0.01259765625
145,740,0.0006757566382000016,0.0126953125
146,745,0.0006757566382000016,0.012890625000000001
147,750,0.0006757566382000016,0.0130859375
148,755,0.0006757566382000016,0.013281250000000001
149,760,0.0006757566382000016,0.013378906250000001
150,765,0.0006757566382000016,0.013574218749999999
151,771,0.0006757566382000016,0.01376953125
152,776,0.0006757566382000016,0.013964843749999999
153,780,0.0006757566382000016,0.014062499999999999
154,786,0.0006757566382000016,0.0142578125
155,790,0.0006757566382000016,0.014453125
156,795,0.0006757566382000016,0.0146484375
157,801,0.0006757566382000016,0.01484375
158,806,0.0008601216582000016,0.0150390625
159,811,0.0008601216582000016,0.015234375000000001
160,816,0.0008601216582000016,0.015332031250000001
161,821,0.0008601216582000016,0.01552734375
162,826,0.0008601216582000016,0.01572265625
163,831,0.0008601216582000016,0.015917968749999997
164,836,0.0008601216582000016,0.01611328125
165,841,0.0008601216582000016,0.01630859375
166,845,0.0008601216582000016,0.01640625
167,850,0.0008601216582000016,0.0166015625
168,862,0.0008601216582000016,0.01708984375
169,872,0.0008601216582000016,0.01748046875
170,879,0.0008601216582000016,0.0177734375
171,885,0.0008601216582000016,0.017968750000000002
172,890,0.0008601216582000016,0.0181640625
173,894,0.0008601216582000016,0.018359374999999997
174,900,0.0011376498532000017,0.0185546875
175,908,0.0011376498532000017,0.0189453125
176,914,0.0011376498532000017,0.019140625
177,919,0.0011376498532000017,0.0193359375
178,924,0.0011376498532000017,0.01953125
179,930,0.0011376498532000017,0.019824218749999997
180,935,0.0011376498532000017,0.02001953125
181,940,0.0011376498532000017,0.02021484375
182,944,0.0011376498532000017,0.02041015625
183,951,0.0011376498532000017,0.020703125000000003
184,955,0.0011376498532000017,0.020800781249999997
185,960,0.0011376498532000017,0.02109375
186,966,0.0011376498532000017,0.0212890625
187,971,0.0011376498532000017,0.021484375
188,977,0.0011376498532000017,0.02177734375
189,982,0.0011376498532000017,0.02197265625
190,988,0.0011376498532000017,0.022265624999999997
191,992,0.0011376498532000017,0.0224609375
192,998,0.0013916420882000016,0.02265625
193,1003,0.0013916420882000016,0.02294921875
194,1008,0.0013916420882000016,0.023144531250000003
195,1013,0.0013916420882000016,0.023339843750000002
196,1025,0.0013916420882000016,0.02392578125
197,1062,0.0013916420882000016,0.025585937500000003
198,1070,0.0013916420882000016,0.0259765625
199,1075,0.0013916420882000016,0.026171875
200,1082,0.0013916420882000016,0.026562500000000003
201,1087,0.0013916420882000016,0.02685546875
202,1093,0.0016515183132000018,0.02705078125
203,1098,0.0016515183132000018,0.02734375
204,1103,0.0016515183132000018,0.0275390625
205,1107,0.0016515183132000018,0.02783203125
206,1112,0.0016515183132000018,0.028027343750000003
207,1118,0.0016515183132000018,0.0283203125
208,1123,0.0016515183132000018,0.028515625
209,1128,0.0016515183132000018,0.02880859375
210,1134,0.0016515183132000018,0.0291015625
211,1139,0.0016515183132000018,0.029394531249999998
212,1145,0.0016515183132000018,0.029589843749999997
213,1149,0.0016515183132000018,0.0298828125
214,1155,0.0016515183132000018,0.03017578125
215,1159,0.0016515183132000018,0.030371093749999998
216,1165,0.0016515183132000018,0.030664062500000002
217,1171,0.0016515183132000018,0.03095703125
218,1176,0.0016515183132000018,0.03125
219,1188,0.0018868779132000016,0.03193359375
220,1198,0.0018868779132000016,0.032421874999999996
221,1207,0.0018868779132000016,0.0328125
222,1212,0.0018868779132000016,0.03310546875
223,1218,0.0018868779132000016,0.033496093750000004
224,1224,0.0018868779132000016,0.0337890625
225,1230,0.0018868779132000016,0.034082031250000006
226,1234,0.0018868779132000016,0.034375
227,1240,0.0018868779132000016,0.03466796875
228,1246,0.0018868779132000016,0.0349609375
229,1250,0.0018868779132000016,0.03525390625
230,1256,0.0018868779132000016,0.035546875
231,1260,0.0018868779132000016,0.0357421875
232,1266,0.0018868779132000016,0.0361328125
233,1271,0.0018868779132000016,0.036328125
234,1275,0.0018868779132000016,0.03662109375
235,1281,0.0020987015532000016,0.0369140625
236,1286,0.0020987015532000016,0.03720703125
237,1291,0.0020987015532000016,0.0375
238,1297,0.0020987015532000016,0.037890625
239,1303,0.0020987015532000016,0.03818359375
240,1315,0.0020987015532000016,0.0388671875
241,1325,0.0020987015532000016,0.039453125
242,1332,0.0020987015532000016,0.03984375
243,1340,0.0020987015532000016,0.04033203125
244,1345,0.0020987015532000016,0.040625
245,1350,0.0020987015532000016,0.040917968750000006
246,1356,0.0020987015532000016,0.041308593750000004
247,1361,0.0020987015532000016,0.041601562499999994
248,1366,0.0020987015532000016,0.04189453125
249,1370,0.0020987015532000016,0.042089843749999994
250,1376,0.0023997657082000016,0.04248046875
251,1381,0.0023997657082000016,0.0427734375
252,1385,0.0023997657082000016,0.04306640625
253,1390,0.0023997657082000016,0.043359375000000006
254,1396,0.0023997657082000016,0.043652343749999996
255,1401,0.0023997657082000016,0.0439453125
256,1406,0.0023997657082000016,0.0443359375
257,1412,0.0023997657082000016,0.04462890625
258,1416,0.0023997657082000016,0.044921875
259,1422,0.0023997657082000016,0.0453125
260,1427,0.0023997657082000016,0.04560546875
261,1433,0.0023997657082000016,0.04599609375
262,1438,0.0023997657082000016,0.046289062500000006
263,1443,0.0023997657082000016,0.046582031249999996
264,1448,0.0023997657082000016,0.046972656249999994
265,1457,0.0023997657082000016,0.0474609375
266,1465,0.0023997657082000016,0.048046875
267,1474,0.0027528051082000016,0.048632812500000004
268,1480,0.0027528051082000016,0.049023437499999996
269,1488,0.0027528051082000016,0.04951171875
270,1493,0.0027528051082000016,0.0498046875
271,1497,0.0027528051082000016,0.0501953125
272,1502,0.0027528051082000016,0.05048828125
273,1508,0.0027528051082000016,0.05087890625
274,1514,0.0027528051082000016,0.05126953125
275,1518,0.0027528051082000016,0.051562500000000004
276,1524,0.0027528051082000016,0.051953125
277,1530,0.0027528051082000016,0.05234375
278,1534,0.0027528051082000016,0.05263671875
279,1540,0.0027528051082000016,0.05302734375
280,1545,0.0027528051082000016,0.0533203125
281,1550,0.0027528051082000016,0.0537109375
282,1555,0.0027528051082000016,0.054003906250000004
283,1559,0.0027528051082000016,0.054296874999999994
284,1566,0.0031342837932000016,0.05478515625
285,1572,0.0031342837932000016,0.055078125
286,1581,0.0031342837932000016,0.05576171875
287,1591,0.0031342837932000016,0.05654296875
288,1599,0.0031342837932000016,0.05703125
289,1608,0.0031342837932000016,0.05771484375
290,1614,0.0031342837932000016,0.05810546875
291,1619,0.0031342837932000016,0.058496093750000006
292,1625,0.0031342837932000016,0.058886718750000004
293,1630,0.0031342837932000016,0.059179687499999994
294,1635,0.0031342837932000016,0.0595703125
295,1640,0.0031342837932000016,0.0599609375
296,1647,0.0031342837932000016,0.060449218750000006
297,1652,0.0031342837932000016,0.060839843750000004
298,1658,0.0031342837932000016,0.061328125000000004
299,1664,0.0035392984382000016,0.06171875
300,1669,0.0035392984382000016,0.062109375
301,1675,0.0035392984382000016,0.0625
302,1679,0.0035392984382000016,0.06279296875
303,1689,0.0035392984382000016,0.0634765625
304,1699,0.0035392984382000016,0.0642578125
305,1710,0.0035392984382000016,0.0650390625
306,1715,0.0035392984382000016,0.0654296875
307,1723,0.0035392984382000016,0.06611328124999999
308,1730,0.0035392984382000016,0.0666015625
309,1735,0.0035392984382000016,0.06699218750000001
310,1741,0.0035392984382000016,0.06748046875
311,1747,0.0035392984382000016,0.06787109375
312,1752,0.0035392984382000016,0.06826171875
313,1758,0.003935487098200002,0.06875
314,1763,0.003935487098200002,0.069140625
315,1769,0.003935487098200002,0.06953125
316,1775,0.003935487098200002,0.07001953125
317,1779,0.003935487098200002,0.07041015625
318,1785,0.003935487098200002,0.07080078125
319,1790,0.003935487098200002,0.07119140625
320,1795,0.003935487098200002,0.07158203125
321,1799,0.003935487098200002,0.07197265625
322,1811,0.003935487098200002,0.0728515625
323,1822,0.003935487098200002,0.07373046875
324,1830,0.003935487098200002,0.0744140625
325,1835,0.003935487098200002,0.0748046875
326,1839,0.003935487098200002,0.0751953125
327,1845,0.003935487098200002,0.0755859375
328,1850,0.004321869108200001,0.0759765625
329,1855,0.004321869108200001,0.0763671875
330,1860,0.004321869108200001,0.07675781250000001
331,1865,0.004321869108200001,0.07724609375
332,1871,0.004321869108200001,0.077734375
333,1877,0.004321869108200001,0.07822265625
334,1882,0.004321869108200001,0.07861328125
335,1887,0.004321869108200001,0.07900390625
336,1892,0.004321869108200001,0.0794921875
337,1897,0.004321869108200001,0.0798828125
338,1903,0.004321869108200001,0.08037109375000001
339,1908,0.004321869108200001,0.08076171874999999
340,1913,0.004321869108200001,0.08115234375000001
341,1918,0.004321869108200001,0.081640625
342,1924,0.004321869108200001,0.08212890625
343,1930,0.004321869108200001,0.08261718750000001
344,1940,0.004321869108200001,0.08349609375
345,1950,0.004777878333200002,0.084375
346,1960,0.004777878333200002,0.08515625
347,1968,0.004777878333200002,0.08583984374999999
348,1974,0.004777878333200002,0.08642578125
349,1980,0.004777878333200002,0.0869140625
350,1985,0.004777878333200002,0.08730468749999999
351,1990,0.004777878333200002,0.08779296875
352,1995,0.004777878333200002,0.08818359375
353,2000,0.004777878333200002,0.08857421875
354,2005,0.004777878333200002,0.08906249999999999
355,2010,0.004777878333200002,0.089453125
356,2019,0.004777878333200002,0.09033203125
357,2024,0.004777878333200002,0.0908203125
358,2030,0.004777878333200002,0.0912109375
359,2034,0.004777878333200002,0.09169921875
360,2048,0.005169163668200001,0.09287109375
361,2059,0.005169163668200001,0.09394531249999999
362,2078,0.005169163668200001,0.0955078125
363,2085,0.005169163668200001,0.0962890625
364,2093,0.005169163668200001,0.09697265625
365,2099,0.005169163668200001,0.09755859375
366,2105,0.005169163668200001,0.09804687499999999
367,2111,0.005169163668200001,0.0986328125
368,2116,0.005169163668200001,0.0990234375
369,2121,0.005169163668200001,0.09951171874999999
370,2126,0.005169163668200001,0.1
371,2132,0.005169163668200001,0.1005859375
372,2138,0.005545739028200001,0.10107421875
373,2144,0.005545739028200001,0.10166015625
374,2149,0.005545739028200001,0.10214843750000001
375,2154,0.005545739028200001,0.10263671875
376,2159,0.005545739028200001,0.10302734375
377,2164,0.005545739028200001,0.10361328125
378,2169,0.005545739028200001,0.10400390625
379,2181,0.005545739028200001,0.10517578124999999
380,2189,0.005545739028200001,0.105859375
381,2195,0.005545739028200001,0.10654296875
382,2203,0.005545739028200001,0.10732421875
383,2210,0.005545739028200001,0.10791015625
384,2214,0.005545739028200001,0.1083984375
385,2220,0.005545739028200001,0.108984375
386,2226,0.005545739028200001,0.10947265625000001
387,2231,0.006031168203200002,0.1099609375
388,2237,0.006031168203200002,0.110546875
389,2242,0.006031168203200002,0.11103515624999999
390,2247,0.006031168203200002,0.1115234375
391,2253,0.006031168203200002,0.11210937500000001
392,2259,0.006031168203200002,0.11269531249999999
393,2264,0.006031168203200002,0.11318359375
394,2269,0.006031168203200002,0.113671875
395,2274,0.006031168203200002,0.1142578125
396,2280,0.006031168203200002,0.11474609375
397,2287,0.006031168203200002,0.115234375
398,2298,0.006031168203200002,0.11660156249999999
399,2308,0.006031168203200002,0.11757812499999999
400,2313,0.006031168203200002,0.11806640625
401,2320,0.006031168203200002,0.11884765625
402,2326,0.006582301933200001,0.11943359375000001
403,2332,0.006582301933200001,0.12001953124999999
404,2338,0.006582301933200001,0.12060546875
405,2344,0.006582301933200001,0.12119140625
406,2349,0.006582301933200001,0.12177734375
407,2355,0.006582301933200001,0.12226562499999999
408,2360,0.006582301933200001,0.1228515625
409,2366,0.006582301933200001,0.1234375
410,2371,0.006582301933200001,0.12392578124999999
411,2376,0.006582301933200001,0.1244140625
412,2382,0.006582301933200001,0.125
413,2388,0.006582301933200001,0.1255859375
414,2395,0.006582301933200001,0.12626953125
415,2400,0.006582301933200001,0.12685546875
416,2411,0.006582301933200001,0.1279296875
417,2420,0.007204043543200002,0.12880859375
418,2430,0.007204043543200002,0.12978515624999998
419,2439,0.007204043543200002,0.1306640625
420,2444,0.007204043543200002,0.13125
421,2450,0.007204043543200002,0.1318359375
422,2456,0.007204043543200002,0.132421875
423,2462,0.007204043543200002,0.1330078125
424,2469,0.007204043543200002,0.13369140625
425,2474,0.007204043543200002,0.13427734375
426,2480,0.007204043543200002,0.13486328125
427,2486,0.007204043543200002,0.13544921875
428,2493,0.007204043543200002,0.13603515625
429,2499,0.007204043543200002,0.13662109375
430,2504,0.007204043543200002,0.13720703125
431,2509,0.007204043543200002,0.1376953125
432,2516,0.0079052190182,0.13837890625
433,2521,0.0079052190182,0.13886718750000002
434,2526,0.0079052190182,0.13935546875
435,2531,0.0079052190182,0.13994140625
436,2540,0.0079052190182,0.1408203125
437,2550,0.0079052190182,0.141796875
438,2559,0.0079052190182,0.1427734375
439,2568,0.0079052190182,0.1435546875
440,2573,0.0079052190182,0.144140625
441,2580,0.0079052190182,0.1447265625
442,2585,0.0079052190182,0.1453125
443,2590,0.0079052190182,0.14580078125
444,2596,0.0079052190182,0.14638671875
445,2602,0.0079052190182,0.14697265625
