,Time,Force (Newtons),Distance (millimeters)
0,2,0.00018680197252500058,9.765625e-05
1,9,0.00018680197252500058,9.765625e-05
2,15,0.00018680197252500058,9.765625e-05
3,20,0.00018680197252500058,9.765625e-05
4,26,0.00018680197252500058,9.765625e-05
5,31,0.00018680197252500058,9.765625e-05
6,37,0.00018680197252500058,9.765625e-05
7,43,0.00018680197252500058,0.0001953125
8,48,0.0002574098525250005,0.0001953125
9,53,0.0002574098525250005,0.0001953125
10,59,0.0002574098525250005,0.0001953125
11,64,0.0002574098525250005,0.0001953125
12,70,0.0002574098525250005,0.00029296875
13,75,0.0002574098525250005,0.00029296875
14,80,0.0002574098525250005,0.00029296875
15,85,0.0002574098525250005,0.00029296875
16,90,0.0002574098525250005,0.000390625
17,95,0.0002574098525250005,0.000390625
18,100,0.0002574098525250005,0.000390625
19,105,0.0002574098525250005,0.000390625
20,110,0.0002574098525250005,0.00048828125
21,115,0.0002574098525250005,0.00048828125
22,120,0.0002574098525250005,0.00048828125
23,125,0.0002574098525250005,0.0005859375
24,130,0.0002574098525250005,0.0005859375
25,135,0.0002574098525250005,0.0005859375
26,140,0.0002995784475250005,0.0006835937500000001
27,153,0.0002995784475250005,0.00078125
28,162,0.0002995784475250005,0.00078125
29,171,0.0002995784475250005,0.0008789062499999999
30,176,0.0002995784475250005,0.0009765625
31,185,0.0002995784475250005,0.0009765625
32,191,0.0002995784475250005,0.00107421875
33,196,0.0002995784475250005,0.001171875
34,201,0.0002995784475250005,0.001171875
35,205,0.0002995784475250005,0.00126953125
36,210,0.0002995784475250005,0.00126953125
37,215,0.0002995784475250005,0.00126953125
38,220,0.0002995784475250005,0.0013671875000000001
39,225,0.0002995784475250005,0.00146484375
40,230,0.0002995784475250005,0.00146484375
41,235,0.00028094581252500057,0.0015625
42,240,0.00028094581252500057,0.0015625
43,245,0.00028094581252500057,0.0016601562500000002
44,250,0.00028094581252500057,0.0017578124999999998
45,255,0.00028094581252500057,0.0017578124999999998
46,260,0.00028094581252500057,0.00185546875
47,265,0.00028094581252500057,0.00185546875
48,270,0.00028094581252500057,0.001953125
49,275,0.00028094581252500057,0.00205078125
50,279,0.00028094581252500057,0.00205078125
51,284,0.00028094581252500057,0.0021484375
52,289,0.00028094581252500057,0.0022460937500000003
53,294,0.00028094581252500057,0.0022460937500000003
54,300,0.00028094581252500057,0.00234375
55,305,0.00028094581252500057,0.00244140625
56,310,0.00028094581252500057,0.0025390625
57,314,0.00028094581252500057,0.0025390625
58,319,0.00028094581252500057,0.00263671875
59,324,0.00028094581252500057,0.0027343750000000003
60,329,0.00028094581252500057,0.00283203125
61,334,0.00025250652752500057,0.00283203125
62,338,0.00025250652752500057,0.0029296875
63,344,0.00025250652752500057,0.00302734375
64,356,0.00025250652752500057,0.0032226562500000003
65,365,0.00025250652752500057,0.00341796875
66,372,0.00025250652752500057,0.0035156249999999997
67,381,0.00025250652752500057,0.00361328125
68,386,0.00025250652752500057,0.0037109375
69,391,0.00025250652752500057,0.0038085937500000003
70,396,0.00025250652752500057,0.00390625
71,401,0.00025250652752500057,0.00400390625
72,406,0.00025250652752500057,0.0041015625
73,411,0.00025250652752500057,0.00419921875
74,416,0.00025250652752500057,0.004296875
75,421,0.00025250652752500057,0.00439453125
76,426,0.00018680197252500058,0.0044921875000000005
77,432,0.00018680197252500058,0.004589843749999999
78,437,0.00018680197252500058,0.0046875
79,442,0.00018680197252500058,0.00478515625
80,447,0.00018680197252500058,0.0048828125
81,452,0.00018680197252500058,0.00498046875
82,458,0.00018680197252500058,0.005078125
83,463,0.00018680197252500058,0.005175781250000001
84,472,0.00018680197252500058,0.0054687500000000005
85,482,0.00018680197252500058,0.0056640625
86,491,0.00018680197252500058,0.005859375
87,497,0.00018680197252500058,0.00595703125
88,503,0.00018680197252500058,0.00615234375
89,508,0.00018680197252500058,0.00625
90,513,0.00018680197252500058,0.00634765625
91,518,0.00018680197252500058,0.0064453125000000005
92,523,0.00014953670252500057,0.00654296875
93,528,0.00014953670252500057,0.0067382812499999995
94,533,0.00014953670252500057,0.0068359375
95,538,0.00014953670252500057,0.00693359375
96,543,0.00014953670252500057,0.007031249999999999
97,548,0.00014953670252500057,0.00712890625
98,553,0.00014953670252500057,0.00732421875
99,558,0.00014953670252500057,0.007421875
100,562,0.00014953670252500057,0.00751953125
101,568,0.00014953670252500057,0.00771484375
102,573,0.00014953670252500057,0.0078125
103,578,0.00014953670252500057,0.007910156250000001
104,583,0.00014953670252500057,0.008105468749999999
105,588,0.00014953670252500057,0.008203125
106,593,0.00014953670252500057,0.00830078125
107,598,0.00014953670252500057,0.00849609375
108,603,0.00014953670252500057,0.00859375
109,608,0.00014953670252500057,0.00869140625
110,613,0.00014953670252500057,0.00888671875
111,618,0.00018189864752500055,0.008984375000000001
112,623,0.00018189864752500055,0.009179687499999999
113,628,0.00018189864752500055,0.00927734375
114,633,0.00018189864752500055,0.00947265625
115,642,0.00018189864752500055,0.00966796875
116,650,0.00018189864752500055,0.0099609375
117,657,0.00018189864752500055,0.01015625
118,666,0.00018189864752500055,0.010351562500000001
119,672,0.00018189864752500055,0.010546875
120,677,0.00018189864752500055,0.0107421875
121,682,0.00018189864752500055,0.010937500000000001
122,687,0.00018189864752500055,0.011035156249999999
123,693,0.00018189864752500055,0.01123046875
124,698,0.00018189864752500055,0.01142578125
125,704,0.00018189864752500055,0.011523437499999999
126,709,0.00018189864752500055,0.01171875
127,714,0.00020151194752500057,0.0119140625
128,719,0.00020151194752500057,0.01201171875
129,724,0.00020151194752500057,0.01220703125
130,729,0.00020151194752500057,0.01240234375
131,734,0.00020151194752500057,0.0125
132,739,0.00020151194752500057,0.0126953125
133,744,0.00020151194752500057,0.012890625000000001
134,749,0.00020151194752500057,0.01298828125
135,754,0.00020151194752500057,0.01318359375
136,759,0.00020151194752500057,0.013378906250000001
137,764,0.00020151194752500057,0.013574218749999999
138,769,0.00020151194752500057,0.013671875
139,774,0.00020151194752500057,0.0138671875
140,782,0.00020151194752500057,0.01416015625
141,787,0.00020151194752500057,0.01435546875
142,792,0.00020151194752500057,0.01455078125
143,797,0.00020151194752500057,0.0146484375
144,802,0.00020151194752500057,0.01484375
145,807,0.0002574098525250005,0.0150390625
146,813,0.0002574098525250005,0.015234375000000001
147,818,0.0002574098525250005,0.0154296875
148,823,0.0002574098525250005,0.015625
149,828,0.0002574098525250005,0.015820312500000003
150,834,0.0002574098525250005,0.016015625
151,846,0.0002574098525250005,0.01650390625
152,859,0.0002574098525250005,0.0169921875
153,865,0.0002574098525250005,0.0171875
154,874,0.0002574098525250005,0.017578125
155,879,0.0002574098525250005,0.0177734375
156,884,0.0002574098525250005,0.017968750000000002
157,889,0.0002574098525250005,0.0181640625
158,896,0.0002574098525250005,0.018359374999999997
159,902,0.00037018632752500055,0.018652343749999998
160,908,0.00037018632752500055,0.01884765625
161,913,0.00037018632752500055,0.019140625
162,918,0.00037018632752500055,0.0193359375
163,923,0.00037018632752500055,0.01953125
164,928,0.00037018632752500055,0.0197265625
165,933,0.00037018632752500055,0.019921875
166,938,0.00037018632752500055,0.0201171875
167,943,0.00037018632752500055,0.0203125
168,949,0.00037018632752500055,0.020605468749999998
169,955,0.00037018632752500055,0.020800781249999997
170,960,0.00037018632752500055,0.02109375
171,966,0.00037018632752500055,0.0212890625
172,976,0.00037018632752500055,0.02177734375
173,985,0.00037018632752500055,0.022070312499999998
174,992,0.00037018632752500055,0.0224609375
175,997,0.0005123827525250006,0.02265625
176,1005,0.0005123827525250006,0.02294921875
177,1011,0.0005123827525250006,0.023242187499999997
178,1017,0.0005123827525250006,0.02353515625
179,1023,0.0005123827525250006,0.023828125
180,1028,0.0005123827525250006,0.0240234375
181,1033,0.0005123827525250006,0.024316406250000002
182,1038,0.0005123827525250006,0.024511718749999998
183,1044,0.0005123827525250006,0.0248046875
184,1049,0.0005123827525250006,0.025
185,1054,0.0005123827525250006,0.0251953125
186,1059,0.0005123827525250006,0.025488281249999998
187,1065,0.0005123827525250006,0.025781250000000002
188,1070,0.0005123827525250006,0.0259765625
189,1075,0.0005123827525250006,0.02626953125
190,1081,0.0005123827525250006,0.02646484375
191,1086,0.0005123827525250006,0.026757812500000002
192,1092,0.0006673278225250006,0.02705078125
193,1097,0.0006673278225250006,0.02724609375
194,1110,0.0006673278225250006,0.027929687499999998
195,1119,0.0006673278225250006,0.0283203125
196,1127,0.0006673278225250006,0.0287109375
197,1136,0.0006673278225250006,0.029199218750000002
198,1143,0.0006673278225250006,0.0294921875
199,1148,0.0006673278225250006,0.02978515625
200,1153,0.0006673278225250006,0.030078125
201,1158,0.0006673278225250006,0.030371093749999998
202,1163,0.0006673278225250006,0.030566406249999997
203,1168,0.0006673278225250006,0.030859375
204,1173,0.0006673278225250006,0.03115234375
205,1178,0.0006673278225250006,0.03134765625
206,1183,0.0006673278225250006,0.031640625000000006
207,1188,0.0009026874225250006,0.031835937499999994
208,1193,0.0009026874225250006,0.03212890625
209,1199,0.0009026874225250006,0.032421874999999996
210,1204,0.0009026874225250006,0.03271484375
211,1210,0.0009026874225250006,0.0330078125
212,1215,0.0009026874225250006,0.03330078125
213,1220,0.0009026874225250006,0.03359375
214,1229,0.0009026874225250006,0.03388671875
215,1239,0.0009026874225250006,0.0345703125
216,1248,0.0009026874225250006,0.03505859375
217,1255,0.0009026874225250006,0.03544921875
218,1264,0.0009026874225250006,0.035937500000000004
219,1269,0.0009026874225250006,0.03623046875
220,1274,0.0009026874225250006,0.036523437500000006
221,1280,0.0010958784275250004,0.0369140625
222,1286,0.0010958784275250004,0.03720703125
223,1291,0.0010958784275250004,0.0375
224,1297,0.0010958784275250004,0.03779296875
225,1302,0.0010958784275250004,0.0380859375
226,1307,0.0010958784275250004,0.0384765625
227,1313,0.0010958784275250004,0.03876953125
228,1318,0.0010958784275250004,0.0390625
229,1323,0.0010958784275250004,0.039355468750000004
230,1328,0.0010958784275250004,0.039648437499999994
231,1334,0.0010958784275250004,0.03994140625
232,1339,0.0010958784275250004,0.040234375
233,1344,0.0010958784275250004,0.040625
234,1349,0.0010958784275250004,0.040917968750000006
235,1362,0.0010958784275250004,0.041699218749999996
236,1371,0.0010958784275250004,0.0421875
237,1378,0.0012655334725250008,0.042578125
238,1385,0.0012655334725250008,0.04296875
239,1394,0.0012655334725250008,0.0435546875
240,1399,0.0012655334725250008,0.0439453125
241,1404,0.0012655334725250008,0.044140624999999996
242,1409,0.0012655334725250008,0.044531249999999994
243,1415,0.0012655334725250008,0.04482421875
244,1420,0.0012655334725250008,0.0451171875
245,1425,0.0012655334725250008,0.0455078125
246,1431,0.0012655334725250008,0.045800781250000006
247,1476,0.0014489178275250007,0.048730468750000006
248,1483,0.0014489178275250007,0.04921875
249,1488,0.0014489178275250007,0.04951171875
250,1494,0.0014489178275250007,0.04990234375
251,1499,0.0014489178275250007,0.05029296875
252,1504,0.0014489178275250007,0.0505859375
253,1518,0.0014489178275250007,0.051464843749999996
254,1533,0.0014489178275250007,0.0521484375
255,1541,0.0014489178275250007,0.05302734375
256,1548,0.0014489178275250007,0.053515625000000004
257,1553,0.0014489178275250007,0.053906249999999996
258,1559,0.0014489178275250007,0.054296874999999994
259,1565,0.0015616943025250007,0.0546875
260,1570,0.0015616943025250007,0.055078125
261,1576,0.0015616943025250007,0.05537109375
262,1581,0.0015616943025250007,0.05576171875
263,1586,0.0015616943025250007,0.05615234375
264,1591,0.0015616943025250007,0.056445312500000004
265,1596,0.0015616943025250007,0.0568359375
266,1602,0.0015616943025250007,0.0572265625
267,1607,0.0015616943025250007,0.0576171875
268,1612,0.0015616943025250007,0.058007812500000006
269,1617,0.0015616943025250007,0.058300781249999996
270,1622,0.0015616943025250007,0.058691406249999994
271,1628,0.0015616943025250007,0.05908203125
272,1634,0.0015616943025250007,0.05947265625
273,1640,0.0015616943025250007,0.0599609375
274,1646,0.0015616943025250007,0.0603515625
275,1654,0.0015616943025250007,0.060742187499999996
276,1664,0.0017078133875250005,0.06171875
277,1673,0.0017078133875250005,0.0623046875
278,1681,0.0017078133875250005,0.06298828125
279,1687,0.0017078133875250005,0.06337890625
280,1694,0.0017078133875250005,0.0638671875
281,1699,0.0017078133875250005,0.0642578125
282,1704,0.0017078133875250005,0.0646484375
283,1709,0.0017078133875250005,0.0650390625
284,1719,0.0017078133875250005,0.06572265625000001
285,1724,0.0017078133875250005,0.06611328124999999
286,1729,0.0017078133875250005,0.06650390625
287,1734,0.0017078133875250005,0.06689453125
288,1740,0.0017078133875250005,0.0673828125
289,1745,0.0017078133875250005,0.0677734375
290,1751,0.0017078133875250005,0.06826171875
291,1757,0.0018402031625250003,0.06865234375
292,1762,0.0018402031625250003,0.06904296875
293,1768,0.0018402031625250003,0.06943359375000001
294,1773,0.0018402031625250003,0.069921875
295,1787,0.0018402031625250003,0.07099609374999999
296,1796,0.0018402031625250003,0.0716796875
297,1804,0.0018402031625250003,0.072265625
298,1810,0.0018402031625250003,0.0728515625
299,1818,0.0018402031625250003,0.07343749999999999
300,1824,0.0018402031625250003,0.07392578125
301,1830,0.0018402031625250003,0.0744140625
302,1835,0.0018402031625250003,0.0748046875
303,1841,0.0018402031625250003,0.07529296875
304,1847,0.0018402031625250003,0.07568359375
305,1852,0.001971612272525,0.076171875
306,1859,0.001971612272525,0.07675781250000001
307,1865,0.001971612272525,0.0771484375
308,1870,0.001971612272525,0.07763671875
309,1877,0.001971612272525,0.07822265625
310,1882,0.001971612272525,0.07861328125
311,1888,0.001971612272525,0.0791015625
312,1894,0.001971612272525,0.07958984375
313,1899,0.001971612272525,0.080078125
314,1905,0.001971612272525,0.08056640625
315,1912,0.001971612272525,0.0810546875
316,1918,0.001971612272525,0.08154296875
317,1924,0.001971612272525,0.08212890625
318,1937,0.001971612272525,0.08320312499999999
319,1947,0.0022736570925250004,0.08408203125
320,1953,0.0022736570925250004,0.0845703125
321,1961,0.0022736570925250004,0.08525390625000001
322,1967,0.0022736570925250004,0.0857421875
323,1973,0.0022736570925250004,0.08623046875
324,1979,0.0022736570925250004,0.08681640625
325,1985,0.0022736570925250004,0.08730468749999999
326,1991,0.0022736570925250004,0.087890625
327,1996,0.0022736570925250004,0.08828124999999999
328,2001,0.0022736570925250004,0.08876953125
329,2007,0.0022736570925250004,0.0892578125
330,2013,0.0022736570925250004,0.08974609374999999
331,2019,0.0022736570925250004,0.090234375
332,2024,0.0022736570925250004,0.09072265624999999
333,2029,0.0022736570925250004,0.0912109375
334,2034,0.0022736570925250004,0.09160156250000001
335,2043,0.002593353882525,0.09238281250000001
336,2048,0.002593353882525,0.09287109375
337,2053,0.002593353882525,0.09335937500000001
338,2058,0.002593353882525,0.09375
339,2063,0.002593353882525,0.09423828125
340,2068,0.002593353882525,0.09462890624999999
341,2076,0.002593353882525,0.09541015624999999
342,2084,0.002593353882525,0.09619140625
343,2091,0.002593353882525,0.09677734375
344,2099,0.002593353882525,0.09746093750000001
345,2105,0.002593353882525,0.09804687499999999
346,2109,0.002593353882525,0.0984375
347,2114,0.002593353882525,0.09882812499999999
348,2119,0.002593353882525,0.09931640625
349,2124,0.002593353882525,0.0998046875
350,2129,0.002593353882525,0.10029296874999999
351,2134,0.002593353882525,0.10078125
352,2139,0.0030366144625250005,0.101171875
353,2144,0.0030366144625250005,0.10166015625
354,2149,0.0030366144625250005,0.10214843750000001
355,2154,0.0030366144625250005,0.10263671875
356,2159,0.0030366144625250005,0.10302734375
357,2164,0.0030366144625250005,0.103515625
358,2169,0.0030366144625250005,0.10400390625
359,2174,0.0030366144625250005,0.1044921875
360,2179,0.0030366144625250005,0.10498046875
361,2184,0.0030366144625250005,0.10546875
362,2189,0.0030366144625250005,0.105859375
363,2194,0.0030366144625250005,0.1064453125
364,2199,0.0030366144625250005,0.10693359375
365,2207,0.0030366144625250005,0.10761718749999999
366,2212,0.0030366144625250005,0.10810546875
367,2217,0.0030366144625250005,0.10869140625000001
368,2222,0.0030366144625250005,0.10908203125
369,2228,0.0030366144625250005,0.10966796875000001
370,2233,0.0035642122325250003,0.11015625
371,2238,0.0035642122325250003,0.11064453125
372,2243,0.0035642122325250003,0.11113281250000001
373,2248,0.0035642122325250003,0.11162109375
374,2253,0.0035642122325250003,0.11210937500000001
375,2258,0.0035642122325250003,0.11259765625
376,2264,0.0035642122325250003,0.11318359375
377,2268,0.0035642122325250003,0.11357421875000001
378,2273,0.0035642122325250003,0.1140625
379,2278,0.0035642122325250003,0.1146484375
380,2283,0.0035642122325250003,0.1150390625
381,2288,0.0035642122325250003,0.115625
382,2293,0.0035642122325250003,0.11611328125
383,2298,0.0035642122325250003,0.11660156249999999
384,2306,0.0035642122325250003,0.11738281249999999
385,2314,0.0035642122325250003,0.11826171875
386,2323,0.0035642122325250003,0.11904296874999999
387,2330,0.003964323552525,0.1197265625
388,2336,0.003964323552525,0.1203125
389,2341,0.003964323552525,0.12089843750000001
390,2346,0.003964323552525,0.12138671875
391,2351,0.003964323552525,0.12187500000000001
392,2356,0.003964323552525,0.12246093749999999
393,2361,0.003964323552525,0.1228515625
394,2366,0.003964323552525,0.1234375
395,2371,0.003964323552525,0.12392578124999999
396,2376,0.003964323552525,0.1244140625
397,2381,0.003964323552525,0.12490234374999999
398,2386,0.003964323552525,0.125390625
399,2392,0.003964323552525,0.1259765625
400,2397,0.003964323552525,0.12656250000000002
401,2402,0.003964323552525,0.12705078125
402,2407,0.003964323552525,0.1275390625
403,2412,0.003964323552525,0.12802734375
404,2417,0.003964323552525,0.128515625
405,2422,0.004392874157525001,0.12900390625000002
406,2427,0.004392874157525001,0.1294921875
407,2432,0.004392874157525001,0.12998046875
408,2437,0.004392874157525001,0.13046875
409,2442,0.004392874157525001,0.1310546875
410,2447,0.004392874157525001,0.13144531250000002
411,2452,0.004392874157525001,0.13203125
412,2457,0.004392874157525001,0.13251953125
413,2462,0.004392874157525001,0.1330078125
414,2467,0.004392874157525001,0.13349609375
415,2473,0.004392874157525001,0.13408203125
416,2478,0.004392874157525001,0.13466796874999998
417,2486,0.004392874157525001,0.13544921875
418,2494,0.004392874157525001,0.13623046875
419,2502,0.004392874157525001,0.13701171874999998
420,2510,0.004392874157525001,0.13779296875
421,2516,0.004854767372525,0.13837890625
422,2522,0.004854767372525,0.13896484375
423,2527,0.004854767372525,0.13945312499999998
424,2532,0.004854767372525,0.1400390625
425,2537,0.004854767372525,0.14052734375
426,2542,0.004854767372525,0.141015625
427,2547,0.004854767372525,0.14150390625
428,2552,0.004854767372525,0.14199218749999998
429,2557,0.004854767372525,0.14248046875
430,2562,0.004854767372525,0.14306640625
431,2568,0.004854767372525,0.1435546875
432,2573,0.004854767372525,0.144140625
433,2578,0.004854767372525,0.14462890625
434,2583,0.004854767372525,0.1451171875
435,2589,0.004854767372525,0.14560546875
436,2594,0.004854767372525,0.14619140625000002
437,2599,0.004854767372525,0.1466796875
438,2604,0.004854767372525,0.147265625
439,2609,0.004854767372525,0.14775390625
440,2615,0.005339215882525001,0.1482421875
441,2621,0.005339215882525001,0.148828125
442,2625,0.005339215882525001,0.14931640624999998
443,2630,0.005339215882525001,0.1498046875
