,Time,Force (Newtons),Distance (millimeters)
0,1,0.0005480652292149992,9.765625e-05
1,7,0.0005480652292149992,9.765625e-05
2,12,0.0005480652292149992,9.765625e-05
3,17,0.0004911866592149992,9.765625e-05
4,22,0.0004911866592149992,9.765625e-05
5,27,0.0004911866592149992,9.765625e-05
6,31,0.0004911866592149992,9.765625e-05
7,37,0.0004911866592149992,9.765625e-05
8,46,0.0004911866592149992,0.0001953125
9,56,0.0004911866592149992,0.0001953125
10,66,0.0004911866592149992,0.0001953125
11,73,0.0004911866592149992,0.00029296875
12,81,0.0004911866592149992,0.00029296875
13,87,0.0004911866592149992,0.00029296875
14,93,0.0004911866592149992,0.000390625
15,98,0.0004911866592149992,0.000390625
16,103,0.0004911866592149992,0.000390625
17,108,0.0005147226192149992,0.000390625
18,113,0.0005147226192149992,0.00048828125
19,117,0.0005147226192149992,0.00048828125
20,123,0.0005147226192149992,0.00048828125
21,129,0.0005147226192149992,0.0005859375
22,134,0.0005147226192149992,0.0005859375
23,139,0.0005147226192149992,0.0006835937500000001
24,146,0.0005147226192149992,0.0006835937500000001
25,151,0.0005147226192149992,0.0006835937500000001
26,156,0.0005147226192149992,0.00078125
27,161,0.0005147226192149992,0.00078125
28,166,0.0005147226192149992,0.0008789062499999999
29,171,0.0005147226192149992,0.0008789062499999999
30,177,0.0005147226192149992,0.0008789062499999999
31,181,0.0005147226192149992,0.0009765625
32,187,0.0005147226192149992,0.0009765625
33,192,0.0005147226192149992,0.00107421875
34,198,0.0005147226192149992,0.00107421875
35,203,0.00047255402421499923,0.001171875
36,208,0.00047255402421499923,0.001171875
37,220,0.00047255402421499923,0.0013671875000000001
38,228,0.00047255402421499923,0.00146484375
39,238,0.00047255402421499923,0.0015625
40,244,0.00047255402421499923,0.0016601562500000002
41,251,0.00047255402421499923,0.0016601562500000002
42,256,0.00047255402421499923,0.0017578124999999998
43,261,0.00047255402421499923,0.00185546875
44,266,0.00047255402421499923,0.00185546875
45,271,0.00047255402421499923,0.001953125
46,276,0.00047255402421499923,0.001953125
47,280,0.00047255402421499923,0.00205078125
48,286,0.00047255402421499923,0.0021484375
49,291,0.00047255402421499923,0.0022460937500000003
50,298,0.00043430808921499916,0.0022460937500000003
51,303,0.00043430808921499916,0.00234375
52,308,0.00043430808921499916,0.00244140625
53,313,0.00043430808921499916,0.0025390625
54,318,0.00043430808921499916,0.0025390625
55,328,0.00043430808921499916,0.0027343750000000003
56,338,0.00043430808921499916,0.0029296875
57,344,0.00043430808921499916,0.00302734375
58,349,0.00043430808921499916,0.00302734375
59,355,0.00043430808921499916,0.003125
60,379,0.00043430808921499916,0.0035156249999999997
61,385,0.00043430808921499916,0.0037109375
62,390,0.00043430808921499916,0.0037109375
63,395,0.0004490180642149992,0.0038085937500000003
64,400,0.0004490180642149992,0.00390625
65,405,0.0004490180642149992,0.00400390625
66,410,0.0004490180642149992,0.0041015625
67,420,0.0004490180642149992,0.004296875
68,428,0.0004490180642149992,0.0044921875000000005
69,435,0.0004490180642149992,0.004589843749999999
70,441,0.0004490180642149992,0.0046875
71,450,0.0004490180642149992,0.0048828125
72,455,0.0004490180642149992,0.00498046875
73,460,0.0004490180642149992,0.005078125
74,465,0.0004490180642149992,0.005175781250000001
75,470,0.0004490180642149992,0.0052734375
76,474,0.0004490180642149992,0.00537109375
77,480,0.0004490180642149992,0.005566406249999999
78,484,0.0004490180642149992,0.0056640625
79,490,0.00046765069921499917,0.0057617187499999995
80,495,0.00046765069921499917,0.005859375
81,500,0.00046765069921499917,0.00595703125
82,505,0.00046765069921499917,0.0060546875
83,509,0.00046765069921499917,0.00615234375
84,515,0.00046765069921499917,0.00634765625
85,520,0.00046765069921499917,0.0064453125000000005
86,525,0.00046765069921499917,0.00654296875
87,530,0.00046765069921499917,0.006640625000000001
88,534,0.00046765069921499917,0.0068359375
89,540,0.00046765069921499917,0.00693359375
90,601,0.0005382585792149991,0.008105468749999999
91,608,0.0005382585792149991,0.00869140625
92,615,0.0005382585792149991,0.00888671875
93,623,0.0005382585792149991,0.00908203125
94,628,0.0005382585792149991,0.009179687499999999
95,633,0.0005382585792149991,0.009375
96,638,0.0005382585792149991,0.00947265625
97,643,0.0005382585792149991,0.00966796875
98,648,0.0005382585792149991,0.009765625
99,653,0.0005382585792149991,0.0099609375
100,659,0.0005382585792149991,0.01015625
101,664,0.0005382585792149991,0.01025390625
102,669,0.0005382585792149991,0.010449218750000001
103,674,0.0005382585792149991,0.010546875
104,679,0.0005951371492149991,0.0107421875
105,683,0.0005951371492149991,0.010839843750000001
106,689,0.0005951371492149991,0.011035156249999999
107,701,0.0005951371492149991,0.01142578125
108,708,0.0005951371492149991,0.011621093749999999
109,715,0.0005951371492149991,0.01181640625
110,721,0.0005951371492149991,0.01201171875
111,728,0.0005951371492149991,0.01220703125
112,733,0.0005951371492149991,0.01240234375
113,738,0.0005951371492149991,0.01259765625
114,743,0.0005951371492149991,0.0126953125
115,748,0.0005951371492149991,0.012890625000000001
116,752,0.0005951371492149991,0.0130859375
117,758,0.0005951371492149991,0.013281250000000001
118,762,0.0005951371492149991,0.013378906250000001
119,768,0.0005951371492149991,0.013574218749999999
120,773,0.0006510350542149992,0.01376953125
121,778,0.0006510350542149992,0.013964843749999999
122,783,0.0006510350542149992,0.014062499999999999
123,788,0.0006510350542149992,0.0142578125
124,793,0.0006510350542149992,0.014453125
125,798,0.0006510350542149992,0.0146484375
126,803,0.0006510350542149992,0.01474609375
127,807,0.0006510350542149992,0.01494140625
128,813,0.0006510350542149992,0.01513671875
129,825,0.0006510350542149992,0.015625
130,834,0.0006510350542149992,0.015917968749999997
131,840,0.0006510350542149992,0.016210937499999998
132,846,0.0006510350542149992,0.01640625
133,853,0.0006510350542149992,0.01669921875
134,859,0.0006510350542149992,0.01689453125
135,863,0.0006510350542149992,0.01708984375
136,868,0.0008393227342149991,0.0171875
137,873,0.0008393227342149991,0.0173828125
138,878,0.0008393227342149991,0.017578125
139,884,0.0008393227342149991,0.01787109375
140,888,0.0008393227342149991,0.01806640625
141,893,0.0008393227342149991,0.0181640625
142,898,0.0008393227342149991,0.01845703125
143,904,0.0008393227342149991,0.018652343749999998
144,909,0.0008393227342149991,0.01884765625
145,914,0.0008393227342149991,0.01904296875
146,919,0.0008393227342149991,0.01923828125
147,923,0.0008393227342149991,0.01943359375
148,929,0.0008393227342149991,0.019628906249999998
149,934,0.0008393227342149991,0.019824218749999997
150,945,0.0008393227342149991,0.0203125
151,954,0.0008393227342149991,0.020703125000000003
152,962,0.0008393227342149991,0.02099609375
153,969,0.0010609530242149993,0.0212890625
154,975,0.0010609530242149993,0.02158203125
155,981,0.0010609530242149993,0.021875000000000002
156,986,0.0010609530242149993,0.022070312499999998
157,991,0.0010609530242149993,0.022265624999999997
158,997,0.0010609530242149993,0.02255859375
159,1003,0.0010609530242149993,0.02275390625
160,1008,0.0010609530242149993,0.023046874999999998
161,1013,0.0010609530242149993,0.023242187499999997
162,1018,0.0010609530242149993,0.0234375
163,1024,0.0010609530242149993,0.02373046875
164,1030,0.0010609530242149993,0.0240234375
165,1036,0.0010609530242149993,0.024316406250000002
166,1041,0.0010609530242149993,0.024511718749999998
167,1047,0.0010609530242149993,0.0248046875
168,1052,0.0010609530242149993,0.025
169,1057,0.0010609530242149993,0.02529296875
170,1062,0.0013296552342149989,0.025488281249999998
171,1067,0.0013296552342149989,0.025683593749999997
172,1072,0.0013296552342149989,0.0259765625
173,1084,0.0013296552342149989,0.02646484375
174,1095,0.0013296552342149989,0.02705078125
175,1105,0.0013296552342149989,0.0275390625
176,1113,0.0013296552342149989,0.027929687499999998
177,1119,0.0013296552342149989,0.028222656250000002
178,1124,0.0013296552342149989,0.028515625
179,1130,0.0013296552342149989,0.0287109375
180,1135,0.0013296552342149989,0.029003906250000003
181,1141,0.0013296552342149989,0.029296875
182,1146,0.0013296552342149989,0.029589843749999997
183,1152,0.001583647469214999,0.0298828125
184,1158,0.001583647469214999,0.03017578125
185,1165,0.001583647469214999,0.030566406249999997
186,1170,0.001583647469214999,0.03076171875
187,1177,0.001583647469214999,0.03115234375
188,1182,0.001583647469214999,0.0314453125
189,1188,0.001583647469214999,0.03173828125
190,1193,0.001583647469214999,0.03203125
191,1201,0.001583647469214999,0.032421874999999996
192,1210,0.001583647469214999,0.03291015625
193,1219,0.001583647469214999,0.0333984375
194,1225,0.001583647469214999,0.03369140625
195,1234,0.001583647469214999,0.0341796875
196,1240,0.001583647469214999,0.0345703125
197,1247,0.001583647469214999,0.034863281249999996
198,1252,0.001781741799214999,0.03515625
199,1257,0.001781741799214999,0.03544921875
200,1264,0.001781741799214999,0.03583984375
201,1269,0.001781741799214999,0.0361328125
202,1274,0.001781741799214999,0.03642578125
203,1280,0.001781741799214999,0.036718749999999994
204,1286,0.001781741799214999,0.037109375
205,1292,0.001781741799214999,0.03740234375
206,1298,0.001781741799214999,0.03779296875
207,1304,0.001781741799214999,0.0380859375
208,1310,0.001781741799214999,0.0384765625
209,1315,0.001781741799214999,0.038671875
210,1320,0.001781741799214999,0.038964843750000006
211,1325,0.001781741799214999,0.039355468750000004
212,1335,0.001781741799214999,0.03994140625
213,1343,0.0020318113742149994,0.04033203125
214,1352,0.0020318113742149994,0.040917968750000006
215,1358,0.0020318113742149994,0.041210937499999996
216,1365,0.0020318113742149994,0.041699218749999996
217,1371,0.0020318113742149994,0.0419921875
218,1377,0.0020318113742149994,0.0423828125
219,1382,0.0020318113742149994,0.04267578125
220,1387,0.0020318113742149994,0.04296875
221,1392,0.0020318113742149994,0.04326171875
222,1398,0.0020318113742149994,0.043652343749999996
223,1403,0.0020318113742149994,0.0439453125
224,1409,0.0020318113742149994,0.0443359375
225,1414,0.0020318113742149994,0.04462890625
226,1419,0.0020318113742149994,0.044921875
227,1424,0.0020318113742149994,0.0453125
228,1430,0.0020318113742149994,0.04560546875
229,1435,0.0020318113742149994,0.04599609375
230,1441,0.002379947449214999,0.046289062500000006
231,1446,0.002379947449214999,0.046679687500000004
232,1451,0.002379947449214999,0.046972656249999994
233,1457,0.002379947449214999,0.04736328125
234,1462,0.002379947449214999,0.04765625
235,1468,0.002379947449214999,0.048046875
236,1478,0.002379947449214999,0.048730468750000006
237,1487,0.002379947449214999,0.04931640625
238,1495,0.002379947449214999,0.0498046875
239,1500,0.002379947449214999,0.0501953125
240,1508,0.002379947449214999,0.050683593750000006
241,1514,0.002379947449214999,0.051074218750000004
242,1519,0.002379947449214999,0.051367187499999994
243,1524,0.002379947449214999,0.0517578125
244,1529,0.002379947449214999,0.05205078125
245,1535,0.0027986914042149986,0.05244140625
246,1540,0.0027986914042149986,0.05283203125
247,1544,0.0027986914042149986,0.053125000000000006
248,1550,0.0027986914042149986,0.053515625000000004
249,1555,0.0027986914042149986,0.053808593749999994
250,1560,0.0027986914042149986,0.05419921875
251,1565,0.0027986914042149986,0.0544921875
252,1570,0.0027986914042149986,0.0548828125
253,1575,0.0027986914042149986,0.05517578125
254,1580,0.0027986914042149986,0.055566406250000006
255,1585,0.0027986914042149986,0.055957031250000004
256,1597,0.0027986914042149986,0.056738281249999994
257,1608,0.0027986914042149986,0.05751953125
258,1619,0.0027986914042149986,0.058300781249999996
259,1627,0.0027986914042149986,0.058789062499999996
260,1635,0.0031948800642149994,0.05947265625
261,1640,0.0031948800642149994,0.059765625
262,1646,0.0031948800642149994,0.06015625
263,1651,0.0031948800642149994,0.060546875
264,1656,0.0031948800642149994,0.060937500000000006
265,1661,0.0031948800642149994,0.061328125000000004
266,1666,0.0031948800642149994,0.061621093749999994
267,1672,0.0031948800642149994,0.062109375
268,1677,0.0031948800642149994,0.0625
269,1683,0.0031948800642149994,0.062890625
270,1689,0.0031948800642149994,0.06337890625
271,1694,0.0031948800642149994,0.06367187499999999
272,1699,0.0031948800642149994,0.0640625
273,1704,0.0031948800642149994,0.064453125
274,1709,0.0031948800642149994,0.06484374999999999
275,1716,0.0031948800642149994,0.06533203125
276,1721,0.0031948800642149994,0.06572265625000001
277,1727,0.003618527344214999,0.0662109375
278,1733,0.003618527344214999,0.0666015625
279,1738,0.003618527344214999,0.06708984375
280,1747,0.003618527344214999,0.06767578125
281,1759,0.003618527344214999,0.06845703125
282,1771,0.003618527344214999,0.06953125
283,1777,0.003618527344214999,0.07001953125
284,1784,0.003618527344214999,0.07060546875000001
285,1790,0.003618527344214999,0.07109375
286,1795,0.003618527344214999,0.071484375
287,1802,0.003618527344214999,0.07197265625
288,1808,0.003618527344214999,0.0724609375
289,1815,0.003618527344214999,0.07294921875
290,1821,0.004117685829214999,0.07343749999999999
291,1826,0.004117685829214999,0.07392578125
292,1832,0.004117685829214999,0.0744140625
293,1839,0.004117685829214999,0.07490234375
294,1844,0.004117685829214999,0.07529296875
295,1849,0.004117685829214999,0.07578125
296,1855,0.004117685829214999,0.07626953125
297,1861,0.004117685829214999,0.07666015625
298,1866,0.004117685829214999,0.0771484375
299,1871,0.004117685829214999,0.0775390625
300,1877,0.004117685829214999,0.07792968750000001
301,1889,0.004117685829214999,0.07890625
302,1897,0.004117685829214999,0.07958984375
303,1906,0.004117685829214999,0.08037109375000001
304,1912,0.004117685829214999,0.080859375
305,1920,0.004791402684214998,0.08154296875
306,1928,0.004791402684214998,0.0822265625
307,1934,0.004791402684214998,0.08271484375
308,1941,0.004791402684214998,0.08330078125
309,1946,0.004791402684214998,0.0837890625
310,1952,0.004791402684214998,0.08427734375000001
311,1957,0.004791402684214998,0.084765625
312,1962,0.004791402684214998,0.08515625
313,1969,0.004791402684214998,0.0857421875
314,1976,0.004791402684214998,0.086328125
315,1981,0.004791402684214998,0.08681640625
316,1988,0.004791402684214998,0.08740234375
317,1995,0.004791402684214998,0.08798828125
318,2000,0.004791402684214998,0.08847656250000001
319,2006,0.004791402684214998,0.08896484375
320,2013,0.005611238624214999,0.08955078125
321,2023,0.005611238624214999,0.0904296875
322,2030,0.005611238624214999,0.091015625
323,2039,0.005611238624214999,0.091796875
324,2050,0.005611238624214999,0.0927734375
325,2060,0.005611238624214999,0.09375
326,2066,0.005611238624214999,0.09423828125
327,2076,0.005611238624214999,0.0951171875
328,2082,0.005611238624214999,0.095703125
329,2087,0.005611238624214999,0.09619140625
330,2092,0.005611238624214999,0.0966796875
331,2097,0.005611238624214999,0.09716796875
332,2103,0.005611238624214999,0.09765625
333,2108,0.006491875794215,0.09804687499999999
334,2113,0.006491875794215,0.09853515625
335,2119,0.006491875794215,0.09912109375
336,2126,0.006491875794215,0.09970703125000001
337,2131,0.006491875794215,0.10029296874999999
338,2137,0.006491875794215,0.10078125
339,2144,0.006491875794215,0.10146484375
340,2149,0.006491875794215,0.10195312499999999
341,2155,0.006491875794215,0.10244140625
342,2160,0.006491875794215,0.10292968749999999
343,2166,0.006491875794215,0.103515625
344,2172,0.006491875794215,0.10400390625
345,2177,0.006491875794215,0.10458984375000001
346,2182,0.006491875794215,0.10498046875
347,2188,0.006491875794215,0.10556640625000001
348,2199,0.007404874909214999,0.106640625
349,2207,0.007404874909214999,0.107421875
350,2214,0.007404874909214999,0.10810546875
351,2223,0.007404874909214999,0.108984375
352,2229,0.007404874909214999,0.10947265625000001
353,2234,0.007404874909214999,0.11005859374999999
354,2240,0.007404874909214999,0.11064453125
355,2246,0.007404874909214999,0.11123046875
356,2251,0.007404874909214999,0.11171874999999999
357,2256,0.007404874909214999,0.11220703125
358,2263,0.007404874909214999,0.11279296875
359,2268,0.007404874909214999,0.11337890625
360,2274,0.007404874909214999,0.11396484375
361,2280,0.007404874909214999,0.11455078125000001
362,2285,0.007404874909214999,0.1150390625
363,2292,0.007404874909214999,0.11572265625
364,2297,0.008276686094214999,0.1162109375
365,2303,0.008276686094214999,0.11679687500000001
366,2308,0.008276686094214999,0.11738281249999999
367,2318,0.008276686094214999,0.11835937499999999
368,2329,0.008276686094214999,0.11943359375000001
369,2337,0.008276686094214999,0.1203125
370,2343,0.008276686094214999,0.12089843750000001
371,2351,0.008276686094214999,0.12167968750000001
372,2357,0.008276686094214999,0.12226562499999999
373,2363,0.008276686094214999,0.1228515625
374,2369,0.008276686094214999,0.1234375
375,2375,0.008276686094214999,0.12412109375000001
376,2381,0.008276686094214999,0.12470703124999999
377,2387,0.008276686094214999,0.12529296875
378,2393,0.009204395184214998,0.12587890625
379,2398,0.009204395184214998,0.1263671875
380,2404,0.009204395184214998,0.126953125
381,2411,0.009204395184214998,0.12763671875
382,2417,0.009204395184214998,0.12822265625
383,2422,0.009204395184214998,0.12880859375
384,2428,0.009204395184214998,0.12939453125
385,2435,0.009204395184214998,0.12998046875
386,2441,0.009204395184214998,0.13056640625
387,2446,0.009204395184214998,0.13115234375
388,2452,0.009204395184214998,0.1318359375
389,2459,0.009204395184214998,0.132421875
390,2472,0.009204395184214998,0.13369140625
391,2481,0.009204395184214998,0.13466796874999998
392,2492,0.010311565969214998,0.1357421875
393,2497,0.010311565969214998,0.13623046875
394,2502,0.010311565969214998,0.13671875
395,2508,0.010311565969214998,0.1373046875
396,2516,0.010311565969214998,0.1380859375
397,2522,0.010311565969214998,0.138671875
398,2528,0.010311565969214998,0.13935546875
399,2537,0.010311565969214998,0.14013671875
400,2543,0.010311565969214998,0.1408203125
401,2548,0.010311565969214998,0.14140625
402,2554,0.010311565969214998,0.14199218749999998
403,2561,0.010311565969214998,0.14267578125
404,2566,0.010311565969214998,0.1431640625
405,2572,0.010311565969214998,0.14375000000000002
406,2578,0.011506996604215,0.14433593749999998
407,2585,0.011506996604215,0.14501953125
408,2590,0.011506996604215,0.14560546875
409,2597,0.011506996604215,0.14619140625000002
410,2602,0.011506996604215,0.14677734374999998
411,2607,0.011506996604215,0.147265625
412,2613,0.011506996604215,0.1478515625
413,2619,0.011506996604215,0.1484375
414,2624,0.011506996604215,0.14892578125
415,2629,0.011506996604215,0.1494140625
416,2634,0.011506996604215,0.14990234375
417,2639,0.011506996604215,0.15048828125
418,2646,0.011506996604215,0.15107421875000002
419,2651,0.011506996604215,0.15166015624999998
420,2660,0.011506996604215,0.1525390625
421,2669,0.011506996604215,0.15351562500000002
422,2676,0.012849526989214998,0.15410156249999998
423,2684,0.012849526989214998,0.15498046875
424,2689,0.012849526989214998,0.15546875
425,2694,0.012849526989214998,0.15595703125000002
426,2699,0.012849526989214998,0.1564453125
427,2703,0.012849526989214998,0.15693359375
428,2709,0.012849526989214998,0.15742187500000002
429,2714,0.012849526989214998,0.15791015625000002
430,2719,0.012849526989214998,0.1583984375
431,2724,0.012849526989214998,0.15888671875
432,2729,0.012849526989214998,0.15947265624999998
433,2734,0.012849526989214998,0.15996093749999998
434,2739,0.012849526989214998,0.16044921875
435,2744,0.012849526989214998,0.1609375
436,2750,0.012849526989214998,0.16162109375
437,2756,0.012849526989214998,0.162109375
438,2761,0.012849526989214998,0.16259765625
439,2766,0.012849526989214998,0.1630859375
440,2771,0.014299930524214998,0.16367187500000002
441,2776,0.014299930524214998,0.16416015625
442,2781,0.014299930524214998,0.1646484375
