,Time,Force (Newtons),Distance (millimeters)
0,2,0.0003445046725050059,9.765625e-05
1,12,0.0003445046725050059,9.765625e-05
2,20,0.0003445046725050059,9.765625e-05
3,24,0.0003494079975050058,9.765625e-05
4,29,0.0003494079975050058,9.765625e-05
5,32,0.0003494079975050058,0.0001953125
6,37,0.0003494079975050058,0.0001953125
7,41,0.0003494079975050058,0.0001953125
8,45,0.0003494079975050058,0.0001953125
9,50,0.0003494079975050058,0.0001953125
10,55,0.0003494079975050058,0.0001953125
11,60,0.0003494079975050058,0.0001953125
12,65,0.0003494079975050058,0.00029296875
13,69,0.0003494079975050058,0.00029296875
14,74,0.0003494079975050058,0.00029296875
15,79,0.0003494079975050058,0.00029296875
16,84,0.0003494079975050058,0.000390625
17,89,0.0003494079975050058,0.000390625
18,94,0.0003494079975050058,0.000390625
19,99,0.0003494079975050058,0.000390625
20,104,0.0003494079975050058,0.00048828125
21,109,0.0003494079975050058,0.00048828125
22,114,0.0003494079975050058,0.00048828125
23,119,0.0002974327525050058,0.0005859375
24,124,0.0002974327525050058,0.0005859375
25,129,0.0002974327525050058,0.0005859375
26,134,0.0002974327525050058,0.0006835937500000001
27,139,0.0002974327525050058,0.0006835937500000001
28,144,0.0002974327525050058,0.00078125
29,149,0.0002974327525050058,0.00078125
30,153,0.0002974327525050058,0.00078125
31,157,0.0002974327525050058,0.0008789062499999999
32,165,0.0002974327525050058,0.0008789062499999999
33,175,0.0002974327525050058,0.0009765625
34,185,0.0002974327525050058,0.00107421875
35,191,0.0002974327525050058,0.001171875
36,198,0.0002974327525050058,0.001171875
37,203,0.0002974327525050058,0.00126953125
38,208,0.0002974327525050058,0.00126953125
39,213,0.00013268103250500582,0.0013671875000000001
40,218,0.00013268103250500582,0.00146484375
41,223,0.00013268103250500582,0.00146484375
42,228,0.00013268103250500582,0.0015625
43,233,0.00013268103250500582,0.0015625
44,238,0.00013268103250500582,0.0016601562500000002
45,243,0.00013268103250500582,0.0017578124999999998
46,248,0.00013268103250500582,0.0017578124999999998
47,253,0.00013268103250500582,0.00185546875
48,258,0.00013268103250500582,0.00185546875
49,263,0.00013268103250500582,0.001953125
50,268,0.00013268103250500582,0.00205078125
51,272,0.00013268103250500582,0.00205078125
52,277,0.00013268103250500582,0.0021484375
53,286,0.00013268103250500582,0.0022460937500000003
54,294,0.00013268103250500582,0.00234375
55,299,0.00013268103250500582,0.00244140625
56,304,0.00013268103250500582,0.0025390625
57,308,-1.3438052494994177e-05,0.0025390625
58,312,-1.3438052494994177e-05,0.00263671875
59,317,-1.3438052494994177e-05,0.0027343750000000003
60,324,-1.3438052494994177e-05,0.00283203125
61,328,-1.3438052494994177e-05,0.00283203125
62,333,-1.3438052494994177e-05,0.0029296875
63,338,-1.3438052494994177e-05,0.00302734375
64,342,-1.3438052494994177e-05,0.003125
65,347,-1.3438052494994177e-05,0.003125
66,351,-1.3438052494994177e-05,0.0032226562500000003
67,356,-1.3438052494994177e-05,0.0033203125000000003
68,363,-1.3438052494994177e-05,0.00341796875
69,369,-1.3438052494994177e-05,0.0035156249999999997
70,378,-1.3438052494994177e-05,0.0037109375
71,383,-1.3438052494994177e-05,0.0038085937500000003
72,388,-1.3438052494994177e-05,0.00390625
73,393,-1.3438052494994177e-05,0.00400390625
74,398,-1.3438052494994177e-05,0.0041015625
75,402,-0.00010267856749499419,0.0041015625
76,407,-0.00010267856749499419,0.00419921875
77,411,-0.00010267856749499419,0.004296875
78,415,-0.00010267856749499419,0.00439453125
79,420,-0.00010267856749499419,0.0044921875000000005
80,425,-0.00010267856749499419,0.004589843749999999
81,429,-0.00010267856749499419,0.0046875
82,432,-0.00010267856749499419,0.0046875
83,437,-0.00010267856749499419,0.00478515625
84,441,-0.00010267856749499419,0.0048828125
85,446,-0.00010267856749499419,0.00498046875
86,450,-0.00010267856749499419,0.005078125
87,454,-0.00010267856749499419,0.005175781250000001
88,458,-0.00010267856749499419,0.0052734375
89,462,-0.00010267856749499419,0.00537109375
90,467,-0.00010267856749499419,0.0054687500000000005
91,472,-0.00010267856749499419,0.005566406249999999
92,477,-0.00010267856749499419,0.0056640625
93,481,-0.00010267856749499419,0.0057617187499999995
94,486,-0.00010267856749499419,0.005859375
95,491,-0.00010267856749499419,0.00595703125
96,496,-0.00020172573249499417,0.0060546875
97,501,-0.00020172573249499417,0.00625
98,506,-0.00020172573249499417,0.00634765625
99,511,-0.00020172573249499417,0.0064453125000000005
100,516,-0.00020172573249499417,0.00654296875
101,521,-0.00020172573249499417,0.006640625000000001
102,526,-0.00020172573249499417,0.0068359375
103,531,-0.00020172573249499417,0.00693359375
104,536,-0.00020172573249499417,0.007031249999999999
105,542,-0.00020172573249499417,0.00712890625
106,550,-0.00020172573249499417,0.007421875
107,557,-0.00020172573249499417,0.007617187500000001
108,564,-0.00020172573249499417,0.00771484375
109,571,-0.00020172573249499417,0.007910156250000001
110,576,-0.00020172573249499417,0.008105468749999999
111,581,-0.00020172573249499417,0.008203125
112,586,-0.00020172573249499417,0.00830078125
113,591,-0.0002527203124949942,0.00849609375
114,596,-0.0002527203124949942,0.00859375
115,601,-0.0002527203124949942,0.00869140625
116,606,-0.0002527203124949942,0.00888671875
117,611,-0.0002527203124949942,0.008984375000000001
118,615,-0.0002527203124949942,0.00908203125
119,620,-0.0002527203124949942,0.00927734375
120,625,-0.0002527203124949942,0.009375
121,629,-0.0002527203124949942,0.00947265625
122,634,-0.0002527203124949942,0.00966796875
123,639,-0.0002527203124949942,0.009765625
124,644,-0.0002527203124949942,0.0099609375
125,649,-0.0002527203124949942,0.01005859375
126,654,-0.0002527203124949942,0.01025390625
127,658,-0.0002527203124949942,0.010351562500000001
128,662,-0.0002527203124949942,0.010449218750000001
129,667,-0.0002527203124949942,0.01064453125
130,671,-0.0002527203124949942,0.0107421875
131,676,-0.0002527203124949942,0.010937500000000001
132,681,-0.0002527203124949942,0.011035156249999999
133,685,-0.0002527203124949942,0.011132812499999999
134,690,-0.00022035836749499416,0.011328125
135,695,-0.00022035836749499416,0.011523437499999999
136,700,-0.00022035836749499416,0.011621093749999999
137,705,-0.00022035836749499416,0.01181640625
138,710,-0.00022035836749499416,0.01201171875
139,719,-0.00022035836749499416,0.0123046875
140,728,-0.00022035836749499416,0.0125
141,733,-0.00022035836749499416,0.0126953125
142,740,-0.00022035836749499416,0.01298828125
143,745,-0.00022035836749499416,0.0130859375
144,750,-0.00022035836749499416,0.013281250000000001
145,755,-0.00022035836749499416,0.013476562499999999
146,760,-0.00022035836749499416,0.013671875
147,765,-0.00022035836749499416,0.01376953125
148,769,-0.00022035836749499416,0.013964843749999999
149,774,-0.00022035836749499416,0.014062499999999999
150,779,-0.00022035836749499416,0.0142578125
151,784,-0.00019191908249499416,0.014453125
152,789,-0.00019191908249499416,0.0146484375
153,794,-0.00019191908249499416,0.01484375
154,799,-0.00019191908249499416,0.01494140625
155,804,-0.00019191908249499416,0.01513671875
156,809,-0.00019191908249499416,0.015332031250000001
157,814,-0.00019191908249499416,0.01552734375
158,819,-0.00019191908249499416,0.01572265625
159,824,-0.00019191908249499416,0.015917968749999997
160,828,-0.00019191908249499416,0.016015625
161,833,-0.00019191908249499416,0.016210937499999998
162,838,-0.00019191908249499416,0.01640625
163,844,-0.00019191908249499416,0.0166015625
164,849,-0.00019191908249499416,0.016796875
165,854,-0.00019191908249499416,0.0169921875
166,859,-0.00019191908249499416,0.0171875
167,864,-0.00019191908249499416,0.0173828125
168,869,-0.00019191908249499416,0.017578125
169,874,-0.00019191908249499416,0.0177734375
170,879,-0.00013111785249499418,0.017968750000000002
171,884,-0.00013111785249499418,0.0181640625
172,892,-0.00013111785249499418,0.0185546875
173,900,-0.00013111785249499418,0.01884765625
174,908,-0.00013111785249499418,0.019140625
175,913,-0.00013111785249499418,0.0193359375
176,918,-0.00013111785249499418,0.01953125
177,923,-0.00013111785249499418,0.0197265625
178,928,-0.00013111785249499418,0.02001953125
179,933,-0.00013111785249499418,0.02021484375
180,938,-0.00013111785249499418,0.02041015625
181,943,-0.00013111785249499418,0.020605468749999998
182,948,-0.00013111785249499418,0.020800781249999997
183,953,-0.00013111785249499418,0.02099609375
184,958,-0.00013111785249499418,0.0212890625
185,964,-0.00013111785249499418,0.021484375
186,968,-0.00013111785249499418,0.021679687500000003
187,972,-6.933595749499418e-05,0.021875000000000002
188,977,-6.933595749499418e-05,0.022070312499999998
189,982,-6.933595749499418e-05,0.022265624999999997
190,987,-6.933595749499418e-05,0.0224609375
191,992,-6.933595749499418e-05,0.02275390625
192,997,-6.933595749499418e-05,0.02294921875
193,1002,-6.933595749499418e-05,0.023144531250000003
194,1007,-6.933595749499418e-05,0.0234375
195,1012,-6.933595749499418e-05,0.0236328125
196,1018,-6.933595749499418e-05,0.02392578125
197,1024,-6.933595749499418e-05,0.024121093750000003
198,1028,-6.933595749499418e-05,0.024316406250000002
199,1033,-6.933595749499418e-05,0.024609375
200,1038,-6.933595749499418e-05,0.0248046875
201,1043,-6.933595749499418e-05,0.025
202,1048,-6.933595749499418e-05,0.02529296875
203,1054,-6.933595749499418e-05,0.025488281249999998
204,1058,-6.933595749499418e-05,0.025781250000000002
205,1063,-6.933595749499418e-05,0.0259765625
206,1069,-7.423928249499417e-05,0.026171875
207,1073,-7.423928249499417e-05,0.02646484375
208,1081,-7.423928249499417e-05,0.02685546875
209,1091,-7.423928249499417e-05,0.02724609375
210,1097,-7.423928249499417e-05,0.0275390625
211,1104,-7.423928249499417e-05,0.027929687499999998
212,1109,-7.423928249499417e-05,0.028222656250000002
213,1114,-7.423928249499417e-05,0.02841796875
214,1119,-7.423928249499417e-05,0.0287109375
215,1124,-7.423928249499417e-05,0.02890625
216,1130,-7.423928249499417e-05,0.029199218750000002
217,1134,-7.423928249499417e-05,0.0294921875
218,1139,-7.423928249499417e-05,0.0296875
219,1144,-7.423928249499417e-05,0.02998046875
220,1149,-7.423928249499417e-05,0.03017578125
221,1154,-7.423928249499417e-05,0.030468750000000003
222,1159,-7.423928249499417e-05,0.030664062500000002
223,1163,-4.5799997494994176e-05,0.030859375
224,1168,-4.5799997494994176e-05,0.03115234375
225,1173,-4.5799997494994176e-05,0.0314453125
226,1178,-4.5799997494994176e-05,0.03173828125
227,1183,-4.5799997494994176e-05,0.03193359375
228,1188,-4.5799997494994176e-05,0.0322265625
229,1193,-4.5799997494994176e-05,0.032421874999999996
230,1198,-4.5799997494994176e-05,0.03271484375
231,1203,-4.5799997494994176e-05,0.0330078125
232,1208,-4.5799997494994176e-05,0.03330078125
233,1213,-4.5799997494994176e-05,0.03359375
234,1218,-4.5799997494994176e-05,0.0337890625
235,1223,-4.5799997494994176e-05,0.034082031250000006
236,1228,-4.5799997494994176e-05,0.034375
237,1233,-4.5799997494994176e-05,0.03466796875
238,1241,-4.5799997494994176e-05,0.03505859375
239,1249,-4.5799997494994176e-05,0.035546875
240,1256,-5.070332249499417e-05,0.035937500000000004
241,1263,-5.070332249499417e-05,0.036328125
242,1268,-5.070332249499417e-05,0.036523437500000006
243,1273,-5.070332249499417e-05,0.03681640625
244,1277,-5.070332249499417e-05,0.037109375
245,1282,-5.070332249499417e-05,0.03740234375
246,1287,-5.070332249499417e-05,0.03759765625
247,1292,-5.070332249499417e-05,0.037890625
248,1297,-5.070332249499417e-05,0.03818359375
249,1302,-5.070332249499417e-05,0.0384765625
250,1307,-5.070332249499417e-05,0.03876953125
251,1312,-5.070332249499417e-05,0.0390625
252,1317,-5.070332249499417e-05,0.039355468750000004
253,1322,-5.070332249499417e-05,0.039648437499999994
254,1327,-5.070332249499417e-05,0.03994140625
255,1332,-5.070332249499417e-05,0.040234375
256,1337,-5.070332249499417e-05,0.04052734375
257,1342,-5.070332249499417e-05,0.0408203125
258,1347,-5.070332249499417e-05,0.04111328125
259,1352,-5.070332249499417e-05,0.041406250000000006
260,1357,-5.070332249499417e-05,0.041699218749999996
261,1362,-5.070332249499417e-05,0.0419921875
262,1367,-5.070332249499417e-05,0.0423828125
263,1372,-5.070332249499417e-05,0.04267578125
264,1377,-5.070332249499417e-05,0.04296875
265,1382,-5.070332249499417e-05,0.04326171875
266,1387,-5.070332249499417e-05,0.0435546875
267,1393,-5.070332249499417e-05,0.043847656250000006
268,1398,-5.070332249499417e-05,0.044238281250000004
269,1402,-5.070332249499417e-05,0.04443359375
270,1408,-5.070332249499417e-05,0.04482421875
271,1415,-5.070332249499417e-05,0.0453125
272,1424,-5.070332249499417e-05,0.045800781250000006
273,1431,-5.070332249499417e-05,0.046289062500000006
274,1439,-5.070332249499417e-05,0.04677734375
275,1444,-5.070332249499417e-05,0.0470703125
276,1449,-4.089667249499417e-05,0.0474609375
277,1454,-4.089667249499417e-05,0.04775390625
278,1459,-4.089667249499417e-05,0.048046875
279,1464,-4.089667249499417e-05,0.04833984375
280,1469,-4.089667249499417e-05,0.048730468750000006
281,1474,-4.089667249499417e-05,0.049023437499999996
282,1479,-4.089667249499417e-05,0.049414062499999994
283,1488,-4.089667249499417e-05,0.04990234375
284,1501,-4.089667249499417e-05,0.05078125
285,1508,-4.089667249499417e-05,0.05126953125
286,1515,-4.089667249499417e-05,0.0517578125
287,1520,-4.089667249499417e-05,0.05205078125
288,1525,-4.089667249499417e-05,0.05244140625
289,1531,-4.089667249499417e-05,0.05283203125
290,1536,-4.089667249499417e-05,0.053125000000000006
291,1541,-3.697401249499418e-05,0.053515625000000004
292,1546,-3.697401249499418e-05,0.053808593749999994
293,1551,-3.697401249499418e-05,0.05419921875
294,1557,-3.697401249499418e-05,0.05458984375
295,1561,-3.697401249499418e-05,0.0548828125
296,1566,-3.697401249499418e-05,0.05517578125
297,1571,-3.697401249499418e-05,0.055566406250000006
298,1576,-3.697401249499418e-05,0.055859374999999996
299,1581,-3.697401249499418e-05,0.056249999999999994
300,1586,-3.697401249499418e-05,0.05654296875
301,1591,-3.697401249499418e-05,0.05693359375
302,1596,-3.697401249499418e-05,0.05732421875
303,1601,-3.697401249499418e-05,0.05771484375
304,1606,-3.697401249499418e-05,0.058007812500000006
305,1611,-3.697401249499418e-05,0.058300781249999996
306,1616,-3.697401249499418e-05,0.058691406249999994
307,1621,-3.697401249499418e-05,0.05908203125
308,1626,-3.697401249499418e-05,0.05947265625
309,1631,-3.697401249499418e-05,0.059765625
310,1636,-4.089667249499417e-05,0.06015625
311,1641,-4.089667249499417e-05,0.060546875
312,1646,-4.089667249499417e-05,0.060839843750000004
313,1651,-4.089667249499417e-05,0.061230468749999996
314,1656,-4.089667249499417e-05,0.061621093749999994
315,1661,-4.089667249499417e-05,0.0619140625
316,1668,-4.089667249499417e-05,0.06240234375
317,1676,-4.089667249499417e-05,0.06298828125
318,1684,-4.089667249499417e-05,0.06357421875
319,1689,-4.089667249499417e-05,0.06396484375
320,1695,-4.089667249499417e-05,0.064453125
321,1701,-4.089667249499417e-05,0.06484374999999999
322,1705,-4.089667249499417e-05,0.065234375
323,1710,-4.089667249499417e-05,0.065625
324,1715,-4.089667249499417e-05,0.066015625
325,1720,-4.089667249499417e-05,0.06630859375
326,1725,-4.089667249499417e-05,0.06669921875
327,1730,-4.089667249499417e-05,0.06708984375
328,1734,-0.00010267856749499419,0.0673828125
329,1738,-0.00010267856749499419,0.06767578125
330,1743,-0.00010267856749499419,0.06806640625
331,1748,-0.00010267856749499419,0.06845703125
332,1753,-0.00010267856749499419,0.06884765625
333,1758,-0.00010267856749499419,0.06923828125
334,1763,-0.00010267856749499419,0.06962890625
335,1768,-0.00010267856749499419,0.07001953125
336,1774,-0.00010267856749499419,0.07041015625
337,1778,-0.00010267856749499419,0.07080078125
338,1783,-0.00010267856749499419,0.07119140625
339,1788,-0.00010267856749499419,0.07158203125
340,1794,-0.00010267856749499419,0.07197265625
341,1798,-0.00010267856749499419,0.07236328125
342,1804,-0.00010267856749499419,0.0728515625
343,1810,-0.00010267856749499419,0.0732421875
344,1814,-0.00010267856749499419,0.0736328125
345,1819,-0.00010267856749499419,0.0740234375
346,1824,-0.00010267856749499419,0.0744140625
347,1829,-0.00014484716249499416,0.07490234375
348,1835,-0.00014484716249499416,0.07529296875
349,1839,-0.00014484716249499416,0.07568359375
350,1844,-0.00014484716249499416,0.07607421875
351,1849,-0.00014484716249499416,0.07646484375
352,1858,-0.00014484716249499416,0.0771484375
353,1865,-0.00014484716249499416,0.07783203125
354,1873,-0.00014484716249499416,0.07841796875
355,1880,-0.00014484716249499416,0.07890625
356,1884,-0.00014484716249499416,0.07939453125000001
357,1889,-0.00014484716249499416,0.07978515625
358,1894,-0.00014484716249499416,0.08017578125000001
359,1899,-0.00014484716249499416,0.08056640625
360,1904,-0.00014484716249499416,0.0810546875
361,1910,-0.00014484716249499416,0.0814453125
362,1915,-0.00014484716249499416,0.08183593750000001
363,1919,-0.00014484716249499416,0.0822265625
364,1924,-0.0002056483924949942,0.08271484375
365,1929,-0.0002056483924949942,0.08310546875
366,1934,-0.0002056483924949942,0.08349609375
367,1939,-0.0002056483924949942,0.083984375
368,1944,-0.0002056483924949942,0.084375
369,1949,-0.0002056483924949942,0.084765625
370,1955,-0.0002056483924949942,0.08525390625000001
371,1959,-0.0002056483924949942,0.08564453124999999
372,1965,-0.0002056483924949942,0.0861328125
373,1969,-0.0002056483924949942,0.0865234375
374,1974,-0.0002056483924949942,0.08701171875
375,1980,-0.0002056483924949942,0.08740234375
376,1984,-0.0002056483924949942,0.08779296875
377,1989,-0.0002056483924949942,0.08828124999999999
378,1994,-0.0002056483924949942,0.088671875
379,1999,-0.0002056483924949942,0.08916015625000001
380,2005,-0.0002056483924949942,0.08955078125
381,2009,-0.0002056483924949942,0.08994140625000001
382,2014,-0.0002056483924949942,0.0904296875
383,2020,-0.00026252696249499415,0.091015625
384,2025,-0.00026252696249499415,0.09140625
385,2036,-0.00026252696249499415,0.09238281250000001
386,2044,-0.00026252696249499415,0.09316406249999999
387,2050,-0.00026252696249499415,0.09365234375
388,2056,-0.00026252696249499415,0.09423828125
389,2061,-0.00026252696249499415,0.09462890624999999
390,2066,-0.00026252696249499415,0.0951171875
391,2071,-0.00026252696249499415,0.09560546874999999
392,2076,-0.00026252696249499415,0.09599609375
393,2082,-0.00026252696249499415,0.09648437500000001
394,2088,-0.00026252696249499415,0.09707031249999999
395,2092,-0.00026252696249499415,0.09746093750000001
396,2098,-0.00026252696249499415,0.09794921875
397,2102,-0.00026252696249499415,0.0984375
398,2107,-0.00026252696249499415,0.09892578125000001
399,2113,-0.00022918435249499416,0.09931640625
400,2117,-0.00022918435249499416,0.0998046875
401,2122,-0.00022918435249499416,0.10029296874999999
402,2127,-0.00022918435249499416,0.10068359375000001
403,2132,-0.00022918435249499416,0.101171875
404,2138,-0.00022918435249499416,0.10166015625
405,2143,-0.00022918435249499416,0.10214843750000001
406,2148,-0.00022918435249499416,0.10263671875
407,2152,-0.00022918435249499416,0.10302734375
408,2158,-0.00022918435249499416,0.103515625
409,2163,-0.00022918435249499416,0.10400390625
410,2169,-0.00022918435249499416,0.10458984375000001
411,2173,-0.00022918435249499416,0.105078125
412,2178,-0.00022918435249499416,0.10556640625000001
413,2183,-0.00022918435249499416,0.1060546875
414,2189,-0.00022918435249499416,0.10654296875
415,2193,-0.00022918435249499416,0.10693359375
416,2198,-0.00022918435249499416,0.107421875
417,2203,-0.00022918435249499416,0.10791015625
418,2208,-0.0002056483924949942,0.1083984375
419,2219,-0.0002056483924949942,0.10947265625000001
420,2229,-0.0002056483924949942,0.1103515625
421,2235,-0.0002056483924949942,0.11103515624999999
422,2241,-0.0002056483924949942,0.11162109375
423,2247,-0.0002056483924949942,0.11220703125
424,2251,-0.0002056483924949942,0.11259765625
425,2256,-0.0002056483924949942,0.1130859375
426,2261,-0.0002056483924949942,0.11357421875000001
