,Time,Force (Newtons),Distance (millimeters)
0,1,-0.000359787355864994,9.765625e-05
1,6,-0.000359787355864994,9.765625e-05
2,11,-0.000359787355864994,9.765625e-05
3,17,-0.000359787355864994,9.765625e-05
4,21,-0.000359787355864994,9.765625e-05
5,25,-0.000359787355864994,9.765625e-05
6,30,-0.000359787355864994,9.765625e-05
7,35,-0.000359787355864994,9.765625e-05
8,40,-0.000359787355864994,9.765625e-05
9,46,-0.000359787355864994,0.0001953125
10,51,-0.000359787355864994,0.0001953125
11,55,-0.000359787355864994,0.0001953125
12,60,-0.000359787355864994,0.0001953125
13,66,-0.000359787355864994,0.0001953125
14,71,-0.000359787355864994,0.00029296875
15,75,-0.000359787355864994,0.00029296875
16,80,-0.000359787355864994,0.00029296875
17,85,-0.000359787355864994,0.00029296875
18,89,-0.00019013231086499407,0.00029296875
19,94,-0.00019013231086499407,0.000390625
20,100,-0.00019013231086499407,0.000390625
21,104,-0.00019013231086499407,0.000390625
22,109,-0.00019013231086499407,0.00048828125
23,114,-0.00019013231086499407,0.00048828125
24,118,-0.00019013231086499407,0.00048828125
25,126,-0.00019013231086499407,0.0005859375
26,134,-0.00019013231086499407,0.0005859375
27,142,-0.00019013231086499407,0.0006835937500000001
28,148,-0.00019013231086499407,0.0006835937500000001
29,155,-0.00019013231086499407,0.00078125
30,160,-0.00019013231086499407,0.00078125
31,190,-9.108514586499406e-05,0.00107421875
32,194,-9.108514586499406e-05,0.00107421875
33,203,-9.108514586499406e-05,0.001171875
34,208,-9.108514586499406e-05,0.00126953125
35,213,-9.108514586499406e-05,0.00126953125
36,219,-9.108514586499406e-05,0.0013671875000000001
37,224,-9.108514586499406e-05,0.0013671875000000001
38,228,-9.108514586499406e-05,0.00146484375
39,232,-9.108514586499406e-05,0.00146484375
40,236,-9.108514586499406e-05,0.0015625
41,240,-9.108514586499406e-05,0.0015625
42,244,-9.108514586499406e-05,0.0016601562500000002
43,248,-9.108514586499406e-05,0.0016601562500000002
44,252,-9.108514586499406e-05,0.0016601562500000002
45,256,-9.108514586499406e-05,0.0017578124999999998
46,261,-9.108514586499406e-05,0.00185546875
47,266,-9.108514586499406e-05,0.00185546875
48,270,-9.108514586499406e-05,0.001953125
49,274,-9.108514586499406e-05,0.001953125
50,278,-9.598847086499405e-05,0.00205078125
51,282,-9.598847086499405e-05,0.00205078125
52,286,-9.598847086499405e-05,0.0021484375
53,291,-9.598847086499405e-05,0.0022460937500000003
54,295,-9.598847086499405e-05,0.0022460937500000003
55,300,-9.598847086499405e-05,0.00234375
56,305,-9.598847086499405e-05,0.00244140625
57,310,-9.598847086499405e-05,0.00244140625
58,315,-9.598847086499405e-05,0.0025390625
59,320,-9.598847086499405e-05,0.00263671875
60,324,-9.598847086499405e-05,0.00263671875
61,329,-9.598847086499405e-05,0.0027343750000000003
62,339,-9.598847086499405e-05,0.0029296875
63,347,-9.598847086499405e-05,0.00302734375
64,354,-9.598847086499405e-05,0.003125
65,362,-9.598847086499405e-05,0.0033203125000000003
66,366,-9.598847086499405e-05,0.0033203125000000003
67,370,-9.598847086499405e-05,0.00341796875
68,375,-0.00016169302586499406,0.0035156249999999997
69,380,-0.00016169302586499406,0.00361328125
70,385,-0.00016169302586499406,0.0037109375
71,390,-0.00016169302586499406,0.0038085937500000003
72,394,-0.00016169302586499406,0.0038085937500000003
73,399,-0.00016169302586499406,0.00390625
74,404,-0.00016169302586499406,0.00400390625
75,408,-0.00016169302586499406,0.0041015625
76,413,-0.00016169302586499406,0.00419921875
77,418,-0.00016169302586499406,0.004296875
78,422,-0.00016169302586499406,0.00439453125
79,426,-0.00016169302586499406,0.00439453125
80,431,-0.00016169302586499406,0.0044921875000000005
81,435,-0.00016169302586499406,0.004589843749999999
82,440,-0.00016169302586499406,0.0046875
83,444,-0.00016169302586499406,0.00478515625
84,449,-0.00016169302586499406,0.0048828125
85,454,-0.00016169302586499406,0.00498046875
86,458,-0.00016169302586499406,0.005078125
87,463,-0.00016169302586499406,0.005175781250000001
88,468,-0.00019993896086499405,0.0052734375
89,473,-0.00019993896086499405,0.00537109375
90,478,-0.00019993896086499405,0.0054687500000000005
91,483,-0.00019993896086499405,0.005566406249999999
92,487,-0.00019993896086499405,0.0056640625
93,492,-0.00019993896086499405,0.005859375
94,497,-0.00019993896086499405,0.00595703125
95,501,-0.00019993896086499405,0.0060546875
96,510,-0.00019993896086499405,0.00625
97,518,-0.00019993896086499405,0.0064453125000000005
98,524,-0.00019993896086499405,0.00654296875
99,531,-0.00019993896086499405,0.0067382812499999995
100,535,-0.00019993896086499405,0.0068359375
101,539,-0.00019993896086499405,0.00693359375
102,544,-0.00019993896086499405,0.007031249999999999
103,548,-0.00019993896086499405,0.00712890625
104,553,-0.00019993896086499405,0.0072265625
105,558,-0.00019993896086499405,0.007421875
106,563,-0.00013815706586499404,0.00751953125
107,568,-0.00013815706586499404,0.007617187500000001
108,573,-0.00013815706586499404,0.0078125
109,578,-0.00013815706586499404,0.007910156250000001
110,584,-0.00013815706586499404,0.0080078125
111,588,-0.00013815706586499404,0.008203125
112,594,-0.00013815706586499404,0.00830078125
113,599,-0.00013815706586499404,0.0083984375
114,604,-0.00013815706586499404,0.00859375
115,609,-0.00013815706586499404,0.00869140625
116,613,-0.00013815706586499404,0.0087890625
117,618,-0.00013815706586499404,0.008984375000000001
118,622,-0.00013815706586499404,0.00908203125
119,627,-0.00013815706586499404,0.009179687499999999
120,633,-0.00013815706586499404,0.009375
121,638,-0.00013815706586499404,0.0095703125
122,642,-0.00013815706586499404,0.00966796875
123,647,-0.00013815706586499404,0.009765625
124,652,-0.00013815706586499404,0.0099609375
125,657,-0.00016659635086499404,0.01005859375
126,661,-0.00016659635086499404,0.01025390625
127,667,-0.00016659635086499404,0.010351562500000001
128,671,-0.00016659635086499404,0.010546875
129,677,-0.00016659635086499404,0.01064453125
130,681,-0.00016659635086499404,0.010839843750000001
131,687,-0.00016659635086499404,0.010937500000000001
132,691,-0.00016659635086499404,0.011132812499999999
133,695,-0.00016659635086499404,0.01123046875
134,700,-0.00016659635086499404,0.01142578125
135,705,-0.00016659635086499404,0.011523437499999999
136,711,-0.00016659635086499404,0.01171875
137,716,-0.00016659635086499404,0.0119140625
138,722,-0.00016659635086499404,0.012109375
139,727,-0.00016659635086499404,0.01220703125
140,733,-0.00016659635086499404,0.01240234375
141,740,-0.00016659635086499404,0.0126953125
142,749,-0.00016659635086499404,0.01298828125
143,759,-0.00021366827086499404,0.013281250000000001
144,764,-0.00021366827086499404,0.013476562499999999
145,770,-0.00021366827086499404,0.013671875
146,775,-0.00021366827086499404,0.0138671875
147,780,-0.00021366827086499404,0.014062499999999999
148,786,-0.00021366827086499404,0.0142578125
149,796,-0.00021366827086499404,0.01455078125
150,801,-0.00021366827086499404,0.01474609375
151,806,-0.00021366827086499404,0.01494140625
152,810,-0.00021366827086499404,0.01513671875
153,816,-0.00021366827086499404,0.015332031250000001
154,821,-0.00021366827086499404,0.0154296875
155,827,-0.00021366827086499404,0.01572265625
156,832,-0.00021366827086499404,0.015917968749999997
157,838,-0.00021366827086499404,0.01611328125
158,843,-0.00021366827086499404,0.01630859375
159,849,-0.00014306039086499405,0.01650390625
160,854,-0.00014306039086499405,0.01669921875
161,859,-0.00014306039086499405,0.01689453125
162,864,-0.00014306039086499405,0.01708984375
163,869,-0.00014306039086499405,0.01728515625
164,874,-0.00014306039086499405,0.01748046875
165,879,-0.00014306039086499405,0.01767578125
166,883,-0.00014306039086499405,0.01787109375
167,889,-0.00014306039086499405,0.01806640625
168,894,-0.00014306039086499405,0.018261718750000003
169,899,-0.00014306039086499405,0.01845703125
170,904,-0.00014306039086499405,0.018652343749999998
171,910,-0.00014306039086499405,0.01884765625
172,915,-0.00014306039086499405,0.019140625
173,921,-0.00014306039086499405,0.0193359375
174,926,-0.00014306039086499405,0.01953125
175,932,-0.00014306039086499405,0.019824218749999997
176,943,-0.00010579512086499405,0.02021484375
177,953,-0.00010579512086499405,0.020605468749999998
178,962,-0.00010579512086499405,0.02099609375
179,968,-0.00010579512086499405,0.0212890625
180,973,-0.00010579512086499405,0.021484375
181,981,-0.00010579512086499405,0.021875000000000002
182,987,-0.00010579512086499405,0.022070312499999998
183,991,-0.00010579512086499405,0.02236328125
184,997,-0.00010579512086499405,0.02255859375
185,1002,-0.00010579512086499405,0.02275390625
186,1007,-0.00010579512086499405,0.02294921875
187,1011,-0.00010579512086499405,0.023242187499999997
188,1017,-0.00010579512086499405,0.0234375
189,1022,-0.00010579512086499405,0.0236328125
190,1028,-0.00010579512086499405,0.02392578125
191,1033,-0.00010579512086499405,0.02421875
192,1039,-2.5380590864994062e-05,0.0244140625
193,1046,-2.5380590864994062e-05,0.0248046875
194,1051,-2.5380590864994062e-05,0.025
195,1056,-2.5380590864994062e-05,0.0251953125
196,1061,-2.5380590864994062e-05,0.025488281249999998
197,1066,-2.5380590864994062e-05,0.025683593749999997
198,1074,-2.5380590864994062e-05,0.02607421875
199,1081,-2.5380590864994062e-05,0.0263671875
200,1090,-2.5380590864994062e-05,0.02685546875
201,1096,-2.5380590864994062e-05,0.027148437499999997
202,1104,-2.5380590864994062e-05,0.0275390625
203,1109,-2.5380590864994062e-05,0.027734375
204,1114,-2.5380590864994062e-05,0.028027343750000003
205,1119,-2.5380590864994062e-05,0.028222656250000002
206,1124,-2.5380590864994062e-05,0.028515625
207,1130,-2.5380590864994062e-05,0.02880859375
208,1135,0.00011093184413500594,0.0291015625
209,1143,0.00011093184413500594,0.0294921875
210,1149,0.00011093184413500594,0.02978515625
211,1155,0.00011093184413500594,0.030078125
212,1160,0.00011093184413500594,0.0302734375
213,1165,0.00011093184413500594,0.030566406249999997
214,1170,0.00011093184413500594,0.030859375
215,1175,0.00011093184413500594,0.03115234375
216,1181,0.00011093184413500594,0.03134765625
217,1186,0.00011093184413500594,0.031640625000000006
218,1192,0.00011093184413500594,0.03193359375
219,1198,0.00011093184413500594,0.03232421875
220,1204,0.00011093184413500594,0.0326171875
221,1212,0.00011093184413500594,0.0330078125
222,1219,0.00011093184413500594,0.0333984375
223,1228,0.00018153972413500593,0.03388671875
224,1233,0.00018153972413500593,0.0341796875
225,1240,0.00018153972413500593,0.0345703125
226,1245,0.00018153972413500593,0.034765625
227,1251,0.00018153972413500593,0.03515625
228,1257,0.00018153972413500593,0.03544921875
229,1262,0.00018153972413500593,0.0357421875
230,1267,0.00018153972413500593,0.03603515625
231,1271,0.00018153972413500593,0.036328125
232,1277,0.00018153972413500593,0.036523437500000006
233,1282,0.00018153972413500593,0.0369140625
234,1288,0.00018153972413500593,0.03720703125
235,1293,0.00018153972413500593,0.0375
236,1298,0.00018153972413500593,0.03779296875
237,1302,0.00018153972413500593,0.03798828125
238,1308,0.00018153972413500593,0.038378906250000004
239,1314,0.00018153972413500593,0.038671875
240,1321,0.0002570509291350059,0.038964843750000006
241,1331,0.0002570509291350059,0.03974609375
242,1339,0.0002570509291350059,0.04013671875
243,1344,0.0002570509291350059,0.0404296875
244,1352,0.0002570509291350059,0.040917968750000006
245,1359,0.0002570509291350059,0.041308593750000004
246,1364,0.0002570509291350059,0.041601562499999994
247,1369,0.0002570509291350059,0.04189453125
248,1374,0.0002570509291350059,0.0421875
249,1379,0.0002570509291350059,0.042578125
250,1384,0.0002570509291350059,0.04287109375
251,1389,0.0002570509291350059,0.0431640625
252,1395,0.0002570509291350059,0.04345703125
253,1400,0.0002570509291350059,0.043847656250000006
254,1404,0.0002570509291350059,0.044140624999999996
255,1410,0.0002570509291350059,0.04443359375
256,1415,0.0002570509291350059,0.0447265625
257,1420,0.0004551452591350059,0.04501953125
258,1425,0.0004551452591350059,0.0453125
259,1430,0.0004551452591350059,0.045703125
260,1435,0.0004551452591350059,0.04599609375
261,1440,0.0004551452591350059,0.046289062500000006
262,1451,0.0004551452591350059,0.0470703125
263,1462,0.0004551452591350059,0.04765625
264,1471,0.0004551452591350059,0.04833984375
265,1477,0.0004551452591350059,0.048632812500000004
266,1481,0.0004551452591350059,0.048925781249999994
267,1488,0.0004551452591350059,0.049414062499999994
268,1493,0.0004551452591350059,0.04970703125
269,1499,0.0004551452591350059,0.05009765625
270,1505,0.0004551452591350059,0.05048828125
271,1512,0.0004551452591350059,0.050976562499999996
272,1517,0.0007091374941350059,0.051367187499999994
273,1523,0.0007091374941350059,0.0517578125
274,1529,0.0007091374941350059,0.0521484375
275,1536,0.0007091374941350059,0.0525390625
276,1541,0.0007091374941350059,0.0529296875
277,1546,0.0007091374941350059,0.05322265625
278,1552,0.0007091374941350059,0.0537109375
279,1558,0.0007091374941350059,0.054003906250000004
280,1563,0.0007091374941350059,0.05439453125
281,1569,0.0007091374941350059,0.05478515625
282,1573,0.0007091374941350059,0.055078125
283,1579,0.0007091374941350059,0.05546875
284,1585,0.0007091374941350059,0.055859374999999996
285,1590,0.0007091374941350059,0.056249999999999994
286,1610,0.0009023284991350059,0.0576171875
287,1617,0.0009023284991350059,0.05810546875
288,1625,0.0009023284991350059,0.058691406249999994
289,1630,0.0009023284991350059,0.05908203125
290,1634,0.0009023284991350059,0.059375
291,1640,0.0009023284991350059,0.059765625
292,1645,0.0009023284991350059,0.06015625
293,1650,0.0009023284991350059,0.060546875
294,1655,0.0009023284991350059,0.060937500000000006
295,1661,0.0009023284991350059,0.061328125000000004
296,1667,0.0009023284991350059,0.06171875
297,1672,0.0009023284991350059,0.062109375
298,1677,0.0009023284991350059,0.0625
299,1682,0.0009023284991350059,0.06279296875
300,1687,0.0009023284991350059,0.06318359375
301,1692,0.0009023284991350059,0.06357421875
302,1697,0.0009023284991350059,0.06396484375
303,1702,0.0009023284991350059,0.06435546875
304,1707,0.0011661273841350058,0.06474609375
305,1713,0.0011661273841350058,0.06513671875
306,1719,0.0011661273841350058,0.065625
307,1724,0.0011661273841350058,0.066015625
308,1729,0.0011661273841350058,0.06640625
309,1735,0.0011661273841350058,0.066796875
310,1741,0.0011661273841350058,0.06728515624999999
311,1746,0.0011661273841350058,0.06767578125
312,1751,0.0011661273841350058,0.06806640625
313,1757,0.0011661273841350058,0.06855468749999999
314,1762,0.0011661273841350058,0.0689453125
315,1768,0.0011661273841350058,0.0693359375
316,1783,0.0011661273841350058,0.0705078125
317,1795,0.0011661273841350058,0.071484375
318,1803,0.0013406857541350058,0.0720703125
319,1812,0.0013406857541350058,0.0728515625
320,1817,0.0013406857541350058,0.0732421875
321,1824,0.0013406857541350058,0.07373046875
322,1829,0.0013406857541350058,0.07412109375
323,1835,0.0013406857541350058,0.07460937499999999
324,1844,0.0013406857541350058,0.07529296875
325,1849,0.0013406857541350058,0.07578125
326,1856,0.0013406857541350058,0.07626953125
327,1861,0.0013406857541350058,0.07666015625
328,1866,0.0013406857541350058,0.0771484375
329,1871,0.0013406857541350058,0.0775390625
330,1877,0.0013406857541350058,0.07802734375
331,1883,0.0013406857541350058,0.07851562499999999
332,1888,0.0013406857541350058,0.07900390625
333,1894,0.0014868048391350058,0.0794921875
334,1900,0.0014868048391350058,0.07998046874999999
335,1907,0.0014868048391350058,0.08046875
336,1912,0.0014868048391350058,0.08095703124999999
337,1927,0.0014868048391350058,0.08212890625
338,1938,0.0014868048391350058,0.08310546875
339,1944,0.0014868048391350058,0.08359375000000001
340,1952,0.0014868048391350058,0.08427734375000001
341,1957,0.0014868048391350058,0.084765625
342,1962,0.0014868048391350058,0.08515625
343,1968,0.0014868048391350058,0.0857421875
344,1975,0.0014868048391350058,0.08623046875
345,1980,0.0014868048391350058,0.08671875000000001
346,1985,0.0014868048391350058,0.08720703125
347,1991,0.0017594297091350056,0.08769531250000001
348,1997,0.0017594297091350056,0.08818359375
349,2003,0.0017594297091350056,0.08876953125
350,2009,0.0017594297091350056,0.08916015625000001
351,2014,0.0017594297091350056,0.0896484375
352,2019,0.0017594297091350056,0.09013671875000001
353,2024,0.0017594297091350056,0.090625
354,2030,0.0017594297091350056,0.09111328125
355,2036,0.0017594297091350056,0.09160156250000001
356,2041,0.0017594297091350056,0.09208984375
357,2049,0.0017594297091350056,0.0927734375
358,2057,0.0017594297091350056,0.0935546875
359,2066,0.0017594297091350056,0.0943359375
360,2072,0.0017594297091350056,0.094921875
361,2109,0.002088933149135006,0.09814453125
362,2116,0.002088933149135006,0.09882812499999999
363,2121,0.002088933149135006,0.0994140625
364,2127,0.002088933149135006,0.09990234375000001
365,2132,0.002088933149135006,0.100390625
366,2138,0.002088933149135006,0.1009765625
367,2144,0.002088933149135006,0.10146484375
368,2150,0.002088933149135006,0.10205078125
369,2156,0.002088933149135006,0.10263671875
370,2162,0.002088933149135006,0.10312500000000001
371,2167,0.002088933149135006,0.10371093749999999
372,2174,0.002088933149135006,0.10419921875
373,2179,0.0025410197141350057,0.10478515625000001
374,2185,0.0025410197141350057,0.10537109374999999
375,2190,0.0025410197141350057,0.105859375
376,2200,0.0025410197141350057,0.10683593749999999
377,2210,0.0025410197141350057,0.10771484375
378,2218,0.0025410197141350057,0.10849609375
379,2223,0.0025410197141350057,0.108984375
380,2230,0.0025410197141350057,0.10966796875000001
381,2235,0.0025410197141350057,0.11015625
382,2241,0.0025410197141350057,0.1107421875
383,2247,0.0025410197141350057,0.111328125
384,2253,0.0025410197141350057,0.11191406250000001
385,2259,0.0025410197141350057,0.11249999999999999
386,2264,0.0025410197141350057,0.1130859375
387,2271,0.0025410197141350057,0.113671875
388,2276,0.003083327459135006,0.1142578125
389,2281,0.003083327459135006,0.11474609375
390,2286,0.003083327459135006,0.11513671874999999
391,2291,0.003083327459135006,0.11572265625
392,2296,0.003083327459135006,0.1162109375
393,2301,0.003083327459135006,0.11669921875
394,2309,0.003083327459135006,0.11728515625
395,2319,0.003083327459135006,0.11845703125000001
396,2329,0.003083327459135006,0.11953125
397,2335,0.003083327459135006,0.1201171875
398,2344,0.003083327459135006,0.12089843750000001
399,2349,0.003083327459135006,0.12148437499999999
400,2355,0.003083327459135006,0.1220703125
401,2361,0.003083327459135006,0.12275390625
402,2367,0.003083327459135006,0.12333984375000001
403,2373,0.0036815331091350056,0.12392578124999999
404,2378,0.0036815331091350056,0.1244140625
405,2383,0.0036815331091350056,0.12490234374999999
406,2389,0.0036815331091350056,0.1255859375
407,2395,0.0036815331091350056,0.12607421875
408,2401,0.0036815331091350056,0.12666015625000002
409,2406,0.0036815331091350056,0.1271484375
410,2412,0.0036815331091350056,0.127734375
411,2417,0.0036815331091350056,0.1283203125
412,2423,0.0036815331091350056,0.12890625
413,2429,0.0036815331091350056,0.1294921875
414,2442,0.0036815331091350056,0.13076171875
415,2452,0.0036815331091350056,0.13173828125
416,2458,0.0036815331091350056,0.13232421875
417,2465,0.004397418559135006,0.13310546875
418,2471,0.004397418559135006,0.13369140625
419,2478,0.004397418559135006,0.134375
420,2483,0.004397418559135006,0.13486328125
421,2489,0.004397418559135006,0.135546875
422,2495,0.004397418559135006,0.1361328125
423,2501,0.004397418559135006,0.13671875
424,2507,0.004397418559135006,0.1373046875
425,2512,0.004397418559135006,0.13779296875
426,2518,0.004397418559135006,0.13837890625
427,2523,0.004397418559135006,0.13896484375
428,2529,0.004397418559135006,0.13945312499999998
429,2534,0.004397418559135006,0.1400390625
430,2540,0.004397418559135006,0.140625
431,2547,0.004397418559135006,0.14121093750000002
432,2558,0.004397418559135006,0.14228515625
433,2568,0.0051976411991350065,0.143359375
