,Time,Force (Newtons),Distance (millimeters)
0,1,0.00015163336429500673,9.765625e-05
1,7,0.00015163336429500673,9.765625e-05
2,13,0.0002124345942950067,9.765625e-05
3,17,0.0002124345942950067,9.765625e-05
4,22,0.0002124345942950067,9.765625e-05
5,28,0.0002124345942950067,9.765625e-05
6,33,0.0002124345942950067,9.765625e-05
7,38,0.0002124345942950067,9.765625e-05
8,43,0.0002124345942950067,0.0001953125
9,48,0.0002124345942950067,0.0001953125
10,53,0.0002124345942950067,0.0001953125
11,58,0.0002124345942950067,0.0001953125
12,63,0.0002124345942950067,0.0001953125
13,68,0.0002124345942950067,0.0001953125
14,74,0.0002124345942950067,0.00029296875
15,78,0.0002124345942950067,0.00029296875
16,83,0.0002124345942950067,0.00029296875
17,89,0.0002124345942950067,0.00029296875
18,94,0.0002124345942950067,0.000390625
19,99,0.0002124345942950067,0.000390625
20,103,0.0002124345942950067,0.000390625
21,108,0.0002457772042950067,0.00048828125
22,114,0.0002457772042950067,0.00048828125
23,119,0.0002457772042950067,0.00048828125
24,128,0.0002457772042950067,0.0005859375
25,137,0.0002457772042950067,0.0005859375
26,146,0.0002457772042950067,0.0006835937500000001
27,151,0.0002457772042950067,0.0006835937500000001
28,160,0.0002457772042950067,0.00078125
29,164,0.0002457772042950067,0.00078125
30,169,0.0002457772042950067,0.0008789062499999999
31,174,0.0002457772042950067,0.0008789062499999999
32,179,0.0002457772042950067,0.0009765625
33,184,0.0002457772042950067,0.0009765625
34,189,0.0002457772042950067,0.00107421875
35,194,0.0002457772042950067,0.00107421875
36,199,0.0002457772042950067,0.001171875
37,204,-0.017227711765704992,0.001171875
38,209,-0.017227711765704992,0.00126953125
39,214,-0.017227711765704992,0.00126953125
40,219,-0.017227711765704992,0.0013671875000000001
41,224,-0.017227711765704992,0.0013671875000000001
42,229,-0.017227711765704992,0.00146484375
43,233,-0.017227711765704992,0.00146484375
44,238,-0.017227711765704992,0.0015625
45,243,-0.017227711765704992,0.0015625
46,247,-0.017227711765704992,0.0016601562500000002
47,252,-0.017227711765704992,0.0017578124999999998
48,257,-0.017227711765704992,0.0017578124999999998
49,264,-0.017227711765704992,0.00185546875
50,272,-0.017227711765704992,0.001953125
51,277,-0.017227711765704992,0.00205078125
52,282,-0.017227711765704992,0.00205078125
53,287,-0.017227711765704992,0.0021484375
54,292,-0.017227711765704992,0.0022460937500000003
55,297,-0.25369546321570496,0.0022460937500000003
56,302,-0.25369546321570496,0.00234375
57,308,-0.25369546321570496,0.00244140625
58,312,-0.25369546321570496,0.0025390625
59,318,-0.25369546321570496,0.0025390625
60,322,-0.25369546321570496,0.00263671875
61,327,-0.25369546321570496,0.0027343750000000003
62,332,-0.25369546321570496,0.00283203125
63,337,-0.25369546321570496,0.00283203125
64,342,-0.25369546321570496,0.0029296875
65,347,-0.25369546321570496,0.00302734375
66,354,-0.25369546321570496,0.003125
67,364,-0.25369546321570496,0.0033203125000000003
68,372,-0.25369546321570496,0.00341796875
69,378,-0.25369546321570496,0.0035156249999999997
70,385,-0.25369546321570496,0.0037109375
71,389,-0.25369546321570496,0.0037109375
72,394,-0.7263093079957049,0.0038085937500000003
73,399,-0.7263093079957049,0.00390625
74,404,-0.7263093079957049,0.00400390625
75,409,-0.7263093079957049,0.0041015625
76,413,-0.7263093079957049,0.00419921875
77,418,-0.7263093079957049,0.004296875
78,423,-0.7263093079957049,0.00439453125
79,428,-0.7263093079957049,0.0044921875000000005
80,433,-0.7263093079957049,0.004589843749999999
81,438,-0.7263093079957049,0.0046875
82,443,-0.7263093079957049,0.00478515625
83,448,-0.7263093079957049,0.0048828125
84,453,-0.7263093079957049,0.00498046875
85,458,-0.7263093079957049,0.005078125
86,463,-0.7263093079957049,0.005175781250000001
87,468,-0.7263093079957049,0.0052734375
88,473,-0.7263093079957049,0.00537109375
89,478,-0.7263093079957049,0.0054687500000000005
90,483,-0.7263093079957049,0.0056640625
91,488,-1.205922158880705,0.0057617187499999995
92,493,-1.205922158880705,0.005859375
93,498,-1.205922158880705,0.00595703125
94,503,-1.205922158880705,0.0060546875
95,508,-1.205922158880705,0.00615234375
96,513,-1.205922158880705,0.00634765625
97,518,-1.205922158880705,0.0064453125000000005
98,524,-1.205922158880705,0.00654296875
99,528,-1.205922158880705,0.006640625000000001
100,534,-1.205922158880705,0.0067382812499999995
101,539,-1.205922158880705,0.00693359375
102,544,-1.205922158880705,0.007031249999999999
103,549,-1.205922158880705,0.00712890625
104,553,-1.205922158880705,0.0072265625
105,558,-1.205922158880705,0.007421875
106,567,-1.205922158880705,0.007617187500000001
107,575,-1.205922158880705,0.0078125
108,584,-1.635385762995705,0.0080078125
109,589,-1.635385762995705,0.008203125
110,598,-1.635385762995705,0.0083984375
111,603,-1.635385762995705,0.00859375
112,608,-1.635385762995705,0.00869140625
113,613,-1.635385762995705,0.0087890625
114,618,-1.635385762995705,0.008984375000000001
115,623,-1.635385762995705,0.00908203125
116,628,-1.635385762995705,0.00927734375
117,633,-1.635385762995705,0.009375
118,638,-1.635385762995705,0.0095703125
119,643,-1.635385762995705,0.00966796875
120,647,-1.635385762995705,0.009765625
121,652,-1.635385762995705,0.0099609375
122,657,-1.635385762995705,0.01005859375
123,662,-1.635385762995705,0.01025390625
124,667,-1.635385762995705,0.010351562500000001
125,672,-1.635385762995705,0.010546875
126,677,-1.796544326435705,0.01064453125
127,682,-1.796544326435705,0.010839843750000001
128,687,-1.796544326435705,0.010937500000000001
129,692,-1.796544326435705,0.011132812499999999
130,697,-1.796544326435705,0.011328125
131,702,-1.796544326435705,0.01142578125
132,707,-1.796544326435705,0.011621093749999999
133,712,-1.796544326435705,0.01171875
134,717,-1.796544326435705,0.0119140625
135,722,-1.796544326435705,0.012109375
136,727,-1.796544326435705,0.01220703125
137,732,-1.796544326435705,0.01240234375
138,737,-1.796544326435705,0.01259765625
139,742,-1.796544326435705,0.0126953125
140,748,-1.796544326435705,0.012890625000000001
141,756,-1.796544326435705,0.01318359375
142,763,-1.796544326435705,0.013476562499999999
143,768,-1.796544326435705,0.013574218749999999
144,775,-1.649778983200705,0.0138671875
145,780,-1.649778983200705,0.014062499999999999
146,785,-1.649778983200705,0.01416015625
147,790,-1.649778983200705,0.01435546875
148,795,-1.649778983200705,0.01455078125
149,800,-1.649778983200705,0.01474609375
150,805,-1.649778983200705,0.01494140625
151,809,-1.649778983200705,0.0150390625
152,815,-1.649778983200705,0.015234375000000001
153,819,-1.649778983200705,0.0154296875
154,824,-1.649778983200705,0.015625
155,828,-1.649778983200705,0.01572265625
156,832,-1.649778983200705,0.015917968749999997
157,837,-1.649778983200705,0.016015625
158,842,-1.649778983200705,0.016210937499999998
159,847,-1.649778983200705,0.01640625
160,852,-1.649778983200705,0.0166015625
161,857,-1.649778983200705,0.016796875
162,862,-1.649778983200705,0.0169921875
163,867,-1.649778983200705,0.0171875
164,871,-1.393743042340705,0.0173828125
165,875,-1.393743042340705,0.01748046875
166,880,-1.393743042340705,0.01767578125
167,885,-1.393743042340705,0.01787109375
168,891,-1.393743042340705,0.01806640625
169,895,-1.393743042340705,0.018261718750000003
170,901,-1.393743042340705,0.0185546875
171,906,-1.393743042340705,0.01875
172,910,-1.393743042340705,0.0189453125
173,918,-1.393743042340705,0.01923828125
174,926,-1.393743042340705,0.01953125
175,934,-1.393743042340705,0.019921875
176,942,-1.393743042340705,0.02021484375
177,947,-1.393743042340705,0.02041015625
178,952,-1.393743042340705,0.020605468749999998
179,956,-1.393743042340705,0.020800781249999997
180,961,-1.393743042340705,0.02099609375
181,967,-1.0488568911507052,0.02119140625
182,971,-1.0488568911507052,0.02138671875
183,976,-1.0488568911507052,0.021679687500000003
184,981,-1.0488568911507052,0.021875000000000002
185,986,-1.0488568911507052,0.022070312499999998
186,990,-1.0488568911507052,0.022265624999999997
187,995,-1.0488568911507052,0.0224609375
188,1000,-1.0488568911507052,0.02275390625
189,1005,-1.0488568911507052,0.02294921875
190,1010,-1.0488568911507052,0.023144531250000003
191,1015,-1.0488568911507052,0.023339843750000002
192,1020,-1.0488568911507052,0.02353515625
193,1025,-1.0488568911507052,0.023828125
194,1031,-1.0488568911507052,0.0240234375
195,1035,-1.0488568911507052,0.024316406250000002
196,1041,-1.0488568911507052,0.024511718749999998
197,1045,-1.0488568911507052,0.024707031249999997
198,1050,-1.0488568911507052,0.025
199,1055,-1.0488568911507052,0.0251953125
200,1060,-0.668525584200705,0.025390625
201,1066,-0.668525584200705,0.025683593749999997
202,1071,-0.668525584200705,0.02587890625
203,1075,-0.668525584200705,0.026171875
204,1081,-0.668525584200705,0.0263671875
205,1087,-0.668525584200705,0.026757812500000002
206,1095,-0.668525584200705,0.02705078125
207,1103,-0.668525584200705,0.02744140625
208,1108,-0.668525584200705,0.027734375
209,1117,-0.668525584200705,0.028124999999999997
210,1121,-0.668525584200705,0.0283203125
211,1126,-0.668525584200705,0.02861328125
212,1131,-0.668525584200705,0.02890625
213,1136,-0.668525584200705,0.0291015625
214,1141,-0.668525584200705,0.029394531249999998
215,1146,-0.668525584200705,0.029589843749999997
216,1151,-0.668525584200705,0.0298828125
217,1156,-0.34292617156570493,0.030078125
218,1161,-0.34292617156570493,0.030371093749999998
219,1165,-0.34292617156570493,0.030566406249999997
220,1170,-0.34292617156570493,0.030859375
221,1175,-0.34292617156570493,0.0310546875
222,1181,-0.34292617156570493,0.03134765625
223,1185,-0.34292617156570493,0.031640625000000006
224,1190,-0.34292617156570493,0.031835937499999994
225,1195,-0.34292617156570493,0.03212890625
226,1200,-0.34292617156570493,0.032421874999999996
227,1205,-0.34292617156570493,0.03271484375
228,1210,-0.34292617156570493,0.03291015625
229,1215,-0.34292617156570493,0.033203125
230,1220,-0.34292617156570493,0.033496093750000004
231,1225,-0.34292617156570493,0.03369140625
232,1230,-0.34292617156570493,0.033984375
233,1235,-0.34292617156570493,0.034277343749999994
234,1249,-0.119250214375705,0.0349609375
235,1288,-0.119250214375705,0.03623046875
236,1295,-0.119250214375705,0.03759765625
237,1302,-0.119250214375705,0.03798828125
238,1309,-0.119250214375705,0.038378906250000004
239,1315,-0.119250214375705,0.03876953125
240,1320,-0.119250214375705,0.038964843750000006
241,1325,-0.119250214375705,0.039257812499999996
242,1329,-0.119250214375705,0.03955078125
243,1334,-0.119250214375705,0.03984375
244,1338,-0.119250214375705,0.04013671875
245,1343,-0.017110031965704993,0.0404296875
246,1348,-0.017110031965704993,0.04072265625
247,1353,-0.017110031965704993,0.041015625
248,1358,-0.017110031965704993,0.041308593750000004
249,1363,-0.017110031965704993,0.041601562499999994
250,1368,-0.017110031965704993,0.04189453125
251,1373,-0.017110031965704993,0.0421875
252,1378,-0.017110031965704993,0.04248046875
253,1383,-0.017110031965704993,0.0427734375
254,1388,-0.017110031965704993,0.04306640625
255,1393,-0.017110031965704993,0.043359375000000006
256,1398,-0.017110031965704993,0.043652343749999996
257,1403,-0.017110031965704993,0.044042968749999994
258,1408,-0.017110031965704993,0.0443359375
259,1413,-0.017110031965704993,0.04462890625
260,1418,-0.017110031965704993,0.044921875
261,1424,-0.017110031965704993,0.0453125
262,1430,-0.017110031965704993,0.04560546875
263,1434,-0.017110031965704993,0.04599609375
264,1439,0.0002496998642950067,0.046289062500000006
265,1444,0.0002496998642950067,0.046582031249999996
266,1449,0.0002496998642950067,0.046875
267,1454,0.0002496998642950067,0.04716796875
268,1459,0.0002496998642950067,0.04755859375
269,1464,0.0002496998642950067,0.0478515625
270,1469,0.0002496998642950067,0.04814453125
271,1475,0.0002496998642950067,0.048535156249999996
272,1484,0.0002496998642950067,0.049121093750000004
273,1491,0.0002496998642950067,0.049609375
274,1498,0.0002496998642950067,0.05
275,1506,0.0002496998642950067,0.05048828125
276,1511,0.0002496998642950067,0.05087890625
277,1516,0.0002496998642950067,0.051171875000000006
278,1521,0.0002496998642950067,0.051562500000000004
279,1526,0.0002496998642950067,0.051953125
280,1532,0.0002496998642950067,0.05224609375
281,1536,0.0006743278092950067,0.0525390625
282,1542,0.0006743278092950067,0.0529296875
283,1547,0.0006743278092950067,0.05322265625
284,1552,0.0006743278092950067,0.053613281250000006
285,1557,0.0006743278092950067,0.054003906250000004
286,1562,0.0006743278092950067,0.054296874999999994
287,1567,0.0006743278092950067,0.0546875
288,1572,0.0006743278092950067,0.05498046875
289,1577,0.0006743278092950067,0.05537109375
290,1582,0.0006743278092950067,0.0556640625
291,1587,0.0006743278092950067,0.056054687500000006
292,1592,0.0006743278092950067,0.056445312500000004
293,1598,0.0006743278092950067,0.0568359375
294,1603,0.0006743278092950067,0.0572265625
295,1608,0.0006743278092950067,0.05751953125
296,1614,0.0006743278092950067,0.05791015625
297,1619,0.0006743278092950067,0.058300781249999996
298,1623,0.0006743278092950067,0.05859375
299,1628,0.0008626154892950066,0.058984375
300,1634,0.0008626154892950066,0.059375
301,1639,0.0008626154892950066,0.05966796875
302,1644,0.0008626154892950066,0.06005859375
303,1649,0.0008626154892950066,0.060449218750000006
304,1654,0.0008626154892950066,0.060839843750000004
305,1659,0.0008626154892950066,0.061230468749999996
306,1664,0.0008626154892950066,0.0615234375
307,1671,0.0008626154892950066,0.062109375
308,1680,0.0008626154892950066,0.0626953125
309,1687,0.0008626154892950066,0.06318359375
310,1692,0.0008626154892950066,0.06357421875
311,1698,0.0008626154892950066,0.0640625
312,1703,0.0008626154892950066,0.064453125
313,1708,0.0008626154892950066,0.06484374999999999
314,1713,0.0008626154892950066,0.06513671875
315,1718,0.0008626154892950066,0.06552734375
316,1724,0.0010842457792950067,0.06591796875
317,1729,0.0010842457792950067,0.06630859375
318,1734,0.0010842457792950067,0.06669921875
319,1739,0.0010842457792950067,0.06708984375
320,1744,0.0010842457792950067,0.06748046875
321,1749,0.0010842457792950067,0.06787109375
322,1754,0.0010842457792950067,0.06826171875
323,1759,0.0010842457792950067,0.06865234375
324,1764,0.0010842457792950067,0.06904296875
325,1769,0.0010842457792950067,0.0693359375
326,1774,0.0010842457792950067,0.06982421875
327,1779,0.0010842457792950067,0.0701171875
328,1784,0.0010842457792950067,0.07060546875000001
329,1789,0.0010842457792950067,0.0708984375
330,1794,0.0010842457792950067,0.0712890625
331,1799,0.0010842457792950067,0.07177734375
332,1805,0.0010842457792950067,0.072265625
333,1811,0.0010842457792950067,0.07275390625
334,1817,0.0010842457792950067,0.07314453125
335,1822,0.0013755032842950067,0.07353515625
336,1827,0.0013755032842950067,0.07392578125
337,1832,0.0013755032842950067,0.07431640625000001
338,1838,0.0013755032842950067,0.0748046875
339,1843,0.0013755032842950067,0.0751953125
340,1848,0.0013755032842950067,0.07568359375
341,1854,0.0013755032842950067,0.07607421875
342,1859,0.0013755032842950067,0.0765625
343,1864,0.0013755032842950067,0.076953125
344,1869,0.0013755032842950067,0.07734375
345,1874,0.0013755032842950067,0.077734375
346,1880,0.0013755032842950067,0.07822265625
347,1887,0.0013755032842950067,0.07890625
348,1896,0.0013755032842950067,0.07958984375
349,1902,0.0013755032842950067,0.080078125
350,1909,0.0013755032842950067,0.0806640625
351,1914,0.0016491088192950067,0.0810546875
352,1919,0.0016491088192950067,0.0814453125
353,1923,0.0016491088192950067,0.08183593750000001
354,1928,0.0016491088192950067,0.08232421875
355,1933,0.0016491088192950067,0.08271484375
356,1938,0.0016491088192950067,0.08310546875
357,1944,0.0016491088192950067,0.08359375000000001
358,1949,0.0016491088192950067,0.083984375
359,1954,0.0016491088192950067,0.08447265625
360,1959,0.0016491088192950067,0.08486328124999999
361,1963,0.0016491088192950067,0.08525390625000001
362,1969,0.0016491088192950067,0.0857421875
363,1973,0.0016491088192950067,0.0861328125
364,1978,0.0016491088192950067,0.0865234375
365,1983,0.0016491088192950067,0.08701171875
366,1989,0.0016491088192950067,0.08740234375
367,1993,0.0016491088192950067,0.087890625
368,1998,0.0016491088192950067,0.08828124999999999
369,2004,0.0016491088192950067,0.08876953125
370,2009,0.0018658357842950067,0.0892578125
371,2014,0.0018658357842950067,0.0896484375
372,2019,0.0018658357842950067,0.0900390625
373,2024,0.0018658357842950067,0.09052734374999999
374,2029,0.0018658357842950067,0.091015625
375,2034,0.0018658357842950067,0.09140625
376,2039,0.0018658357842950067,0.09189453125
377,2044,0.0018658357842950067,0.09238281250000001
378,2050,0.0018658357842950067,0.09287109375
379,2055,0.0018658357842950067,0.09326171875
380,2060,0.0018658357842950067,0.09375
381,2069,0.0018658357842950067,0.09453125
382,2076,0.0018658357842950067,0.09521484375
383,2084,0.0018658357842950067,0.0958984375
384,2091,0.0018658357842950067,0.09658203125
385,2096,0.0018658357842950067,0.09707031249999999
386,2101,0.0018658357842950067,0.09755859375
387,2107,0.0021060987092950067,0.09794921875
388,2111,0.0021060987092950067,0.0984375
389,2117,0.0021060987092950067,0.09892578125000001
390,2122,0.0021060987092950067,0.0994140625
391,2127,0.0021060987092950067,0.0998046875
392,2132,0.0021060987092950067,0.10029296874999999
393,2136,0.0021060987092950067,0.10078125
394,2142,0.0021060987092950067,0.10126953124999999
395,2147,0.0021060987092950067,0.1017578125
396,2153,0.0021060987092950067,0.10234375000000001
397,2159,0.0021060987092950067,0.10283203125
398,2164,0.0021060987092950067,0.1033203125
399,2169,0.0021060987092950067,0.10380859375000001
400,2173,0.0021060987092950067,0.10419921875
401,2178,0.0021060987092950067,0.1046875
402,2183,0.0021060987092950067,0.10517578124999999
403,2189,0.0021060987092950067,0.1056640625
404,2193,0.0021060987092950067,0.10615234374999999
405,2198,0.0023787235792950066,0.106640625
406,2203,0.0023787235792950066,0.10712890625
407,2208,0.0023787235792950066,0.10761718749999999
408,2214,0.0023787235792950066,0.10810546875
409,2220,0.0023787235792950066,0.10869140625000001
410,2226,0.0023787235792950066,0.10927734374999999
411,2231,0.0023787235792950066,0.109765625
412,2236,0.0023787235792950066,0.11025390624999999
413,2242,0.0023787235792950066,0.11083984375
414,2247,0.0023787235792950066,0.111328125
415,2253,0.0023787235792950066,0.11191406250000001
416,2259,0.0023787235792950066,0.11249999999999999
417,2266,0.0023787235792950066,0.11328125
418,2275,0.0023787235792950066,0.1140625
419,2282,0.0023787235792950066,0.11484375
420,2291,0.0023787235792950066,0.115625
421,2295,0.0026189865042950066,0.11611328125
422,2301,0.0026189865042950066,0.11660156249999999
423,2306,0.0026189865042950066,0.1171875
424,2311,0.0026189865042950066,0.11767578125
425,2317,0.0026189865042950066,0.11826171875
426,2322,0.0026189865042950066,0.11875
427,2327,0.0026189865042950066,0.11923828125000001
428,2332,0.0026189865042950066,0.1197265625
429,2337,0.0026189865042950066,0.1203125
430,2342,0.0026189865042950066,0.120703125
431,2347,0.0026189865042950066,0.1212890625
432,2352,0.0026189865042950066,0.12177734375
433,2358,0.0026189865042950066,0.12236328125
434,2364,0.0026189865042950066,0.12294921875
435,2369,0.0026189865042950066,0.1234375
436,2374,0.0026189865042950066,0.12392578124999999
437,2379,0.0026189865042950066,0.12451171875
438,2385,0.0026189865042950066,0.12509765625
439,2390,0.002830810144295007,0.1255859375
440,2396,0.002830810144295007,0.126171875
441,2400,0.002830810144295007,0.12666015625000002
442,2406,0.002830810144295007,0.1271484375
443,2411,0.002830810144295007,0.12763671875
444,2416,0.002830810144295007,0.128125
445,2421,0.002830810144295007,0.1287109375
446,2425,0.002830810144295007,0.12910156250000002
447,2431,0.002830810144295007,0.12968749999999998
448,2436,0.002830810144295007,0.13017578125
449,2441,0.002830810144295007,0.1306640625
450,2447,0.002830810144295007,0.13125
