,Time,Force (Newtons),Distance (millimeters)
0,1,-7.718618081999875e-05,9.765625e-05
1,7,-7.718618081999875e-05,9.765625e-05
2,12,-7.718618081999875e-05,9.765625e-05
3,17,-7.718618081999875e-05,9.765625e-05
4,22,-7.718618081999875e-05,9.765625e-05
5,27,-7.718618081999875e-05,9.765625e-05
6,32,-7.718618081999875e-05,9.765625e-05
7,37,-7.718618081999875e-05,9.765625e-05
8,41,-7.718618081999875e-05,9.765625e-05
9,45,-7.718618081999875e-05,0.0001953125
10,50,-7.718618081999875e-05,0.0001953125
11,55,-7.718618081999875e-05,0.0001953125
12,60,-7.718618081999875e-05,0.0001953125
13,65,-8.699283081999873e-05,0.0001953125
14,70,-8.699283081999873e-05,0.00029296875
15,75,-8.699283081999873e-05,0.00029296875
16,79,-8.699283081999873e-05,0.00029296875
17,83,-8.699283081999873e-05,0.00029296875
18,88,-8.699283081999873e-05,0.00029296875
19,93,-8.699283081999873e-05,0.000390625
20,98,-8.699283081999873e-05,0.000390625
21,103,-8.699283081999873e-05,0.000390625
22,108,-8.699283081999873e-05,0.000390625
23,112,-8.699283081999873e-05,0.00048828125
24,117,-8.699283081999873e-05,0.00048828125
25,121,-8.699283081999873e-05,0.00048828125
26,126,-8.699283081999873e-05,0.0005859375
27,134,-8.699283081999873e-05,0.0005859375
28,141,-8.699283081999873e-05,0.0006835937500000001
29,146,-8.699283081999873e-05,0.0006835937500000001
30,153,-8.699283081999873e-05,0.00078125
31,158,-8.699283081999873e-05,0.00078125
32,162,-0.00011543211581999874,0.00078125
33,167,-0.00011543211581999874,0.0008789062499999999
34,171,-0.00011543211581999874,0.0008789062499999999
35,175,-0.00011543211581999874,0.0008789062499999999
36,180,-0.00011543211581999874,0.0009765625
37,184,-0.00011543211581999874,0.0009765625
38,189,-0.00011543211581999874,0.00107421875
39,193,-0.00011543211581999874,0.00107421875
40,198,-0.00011543211581999874,0.001171875
41,203,-0.00011543211581999874,0.001171875
42,207,-0.00011543211581999874,0.001171875
43,212,-0.00011543211581999874,0.00126953125
44,216,-0.00011543211581999874,0.00126953125
45,220,-0.00011543211581999874,0.0013671875000000001
46,224,-0.00011543211581999874,0.0013671875000000001
47,228,-0.00011543211581999874,0.00146484375
48,232,-0.00011543211581999874,0.00146484375
49,236,-0.00011543211581999874,0.0015625
50,241,-0.00011543211581999874,0.0015625
51,245,-0.00011543211581999874,0.0016601562500000002
52,249,-0.00011543211581999874,0.0016601562500000002
53,254,-0.00012425810081999873,0.0017578124999999998
54,258,-0.00012425810081999873,0.0017578124999999998
55,262,-0.00012425810081999873,0.00185546875
56,267,-0.00012425810081999873,0.00185546875
57,272,-0.00012425810081999873,0.001953125
58,276,-0.00012425810081999873,0.00205078125
59,281,-0.00012425810081999873,0.00205078125
60,286,-0.00012425810081999873,0.0021484375
61,290,-0.00012425810081999873,0.0021484375
62,295,-0.00012425810081999873,0.0022460937500000003
63,299,-0.00012425810081999873,0.00234375
64,311,-0.00012425810081999873,0.00244140625
65,318,-0.00012425810081999873,0.0025390625
66,325,-0.00012425810081999873,0.0027343750000000003
67,329,-0.00012425810081999873,0.0027343750000000003
68,337,-0.00012425810081999873,0.00283203125
69,342,-0.00012425810081999873,0.0029296875
70,348,-0.00012425810081999873,0.00302734375
71,352,-0.00016740736081999872,0.003125
72,358,-0.00016740736081999872,0.0032226562500000003
73,363,-0.00016740736081999872,0.0033203125000000003
74,367,-0.00016740736081999872,0.0033203125000000003
75,372,-0.00016740736081999872,0.00341796875
76,378,-0.00016740736081999872,0.0035156249999999997
77,382,-0.00016740736081999872,0.00361328125
78,388,-0.00016740736081999872,0.0037109375
79,392,-0.00016740736081999872,0.0038085937500000003
80,397,-0.00016740736081999872,0.00390625
81,402,-0.00016740736081999872,0.00400390625
82,407,-0.00016740736081999872,0.0041015625
83,411,-0.00016740736081999872,0.0041015625
84,416,-0.00016740736081999872,0.00419921875
85,421,-0.00016740736081999872,0.004296875
86,426,-0.00016740736081999872,0.00439453125
87,431,-0.00016740736081999872,0.0044921875000000005
88,436,-0.00016740736081999872,0.004589843749999999
89,441,-0.00016740736081999872,0.0046875
90,446,-0.00028018383581999875,0.00478515625
91,451,-0.00028018383581999875,0.00498046875
92,457,-0.00028018383581999875,0.005078125
93,462,-0.00028018383581999875,0.005175781250000001
94,466,-0.00028018383581999875,0.0052734375
95,472,-0.00028018383581999875,0.00537109375
96,477,-0.00028018383581999875,0.0054687500000000005
97,482,-0.00028018383581999875,0.005566406249999999
98,487,-0.00028018383581999875,0.0056640625
99,492,-0.00028018383581999875,0.0057617187499999995
100,497,-0.00028018383581999875,0.005859375
101,506,-0.00028018383581999875,0.00615234375
102,515,-0.00028018383581999875,0.00634765625
103,522,-0.00028018383581999875,0.0064453125000000005
104,527,-0.00028018383581999875,0.006640625000000001
105,534,-0.00028018383581999875,0.0067382812499999995
106,538,-0.00032725575581999875,0.0068359375
107,543,-0.00032725575581999875,0.007031249999999999
108,548,-0.00032725575581999875,0.00712890625
109,553,-0.00032725575581999875,0.0072265625
110,557,-0.00032725575581999875,0.00732421875
111,561,-0.00032725575581999875,0.007421875
112,566,-0.00032725575581999875,0.00751953125
113,570,-0.00032725575581999875,0.007617187500000001
114,574,-0.00032725575581999875,0.0078125
115,579,-0.00032725575581999875,0.007910156250000001
116,584,-0.00032725575581999875,0.0080078125
117,589,-0.00032725575581999875,0.008203125
118,594,-0.00032725575581999875,0.00830078125
119,599,-0.00032725575581999875,0.0083984375
120,603,-0.00032725575581999875,0.00849609375
121,607,-0.00032725575581999875,0.00869140625
122,611,-0.00032725575581999875,0.0087890625
123,616,-0.00032725575581999875,0.00888671875
124,620,-0.00032725575581999875,0.008984375000000001
125,625,-0.00032725575581999875,0.009179687499999999
126,630,-0.00032725575581999875,0.00927734375
127,635,-0.0003596177008199987,0.00947265625
128,640,-0.0003596177008199987,0.0095703125
129,645,-0.0003596177008199987,0.009765625
130,650,-0.0003596177008199987,0.00986328125
131,655,-0.0003596177008199987,0.0099609375
132,660,-0.0003596177008199987,0.01015625
133,665,-0.0003596177008199987,0.01025390625
134,670,-0.0003596177008199987,0.010449218750000001
135,675,-0.0003596177008199987,0.01064453125
136,683,-0.0003596177008199987,0.010839843750000001
137,690,-0.0003596177008199987,0.011035156249999999
138,698,-0.0003596177008199987,0.011328125
139,703,-0.0003596177008199987,0.01142578125
140,709,-0.0003596177008199987,0.011621093749999999
141,713,-0.0003596177008199987,0.01181640625
142,719,-0.0003596177008199987,0.0119140625
143,723,-0.0003596177008199987,0.012109375
144,727,-0.0003596177008199987,0.01220703125
145,733,-0.00039296031081999873,0.01240234375
146,737,-0.00039296031081999873,0.0125
147,742,-0.00039296031081999873,0.0126953125
148,747,-0.00039296031081999873,0.012890625000000001
149,751,-0.00039296031081999873,0.01298828125
150,756,-0.00039296031081999873,0.01318359375
151,761,-0.00039296031081999873,0.013378906250000001
152,766,-0.00039296031081999873,0.013476562499999999
153,771,-0.00039296031081999873,0.013671875
154,776,-0.00039296031081999873,0.0138671875
155,781,-0.00039296031081999873,0.014062499999999999
156,787,-0.00039296031081999873,0.0142578125
157,791,-0.00039296031081999873,0.01435546875
158,796,-0.00039296031081999873,0.01455078125
159,802,-0.00039296031081999873,0.01474609375
160,806,-0.00039296031081999873,0.01494140625
161,811,-0.00039296031081999873,0.01513671875
162,820,-0.00039296031081999873,0.0154296875
163,824,-0.0003507917158199987,0.015625
164,829,-0.0003507917158199987,0.01572265625
165,835,-0.0003507917158199987,0.015917968749999997
166,840,-0.0003507917158199987,0.01611328125
167,844,-0.0003507917158199987,0.01630859375
168,849,-0.0003507917158199987,0.01650390625
169,853,-0.0003507917158199987,0.01669921875
170,862,-0.0003507917158199987,0.0169921875
171,871,-0.0003507917158199987,0.01728515625
172,879,-0.0003507917158199987,0.01767578125
173,884,-0.0003507917158199987,0.01787109375
174,891,-0.0003507917158199987,0.0181640625
175,897,-0.0003507917158199987,0.018359374999999997
176,902,-0.0003507917158199987,0.0185546875
177,907,-0.0003507917158199987,0.01875
178,913,-0.0003507917158199987,0.0189453125
179,918,-0.00025174455081999875,0.01923828125
180,923,-0.00025174455081999875,0.01943359375
181,929,-0.00025174455081999875,0.019628906249999998
182,934,-0.00025174455081999875,0.019824218749999997
183,938,-0.00025174455081999875,0.02001953125
184,944,-0.00025174455081999875,0.0203125
185,949,-0.00025174455081999875,0.0205078125
186,955,-0.00025174455081999875,0.020703125000000003
187,960,-0.00025174455081999875,0.020898437500000002
188,964,-0.00025174455081999875,0.02109375
189,970,-0.00025174455081999875,0.02138671875
190,975,-0.00025174455081999875,0.02158203125
191,981,-0.00025174455081999875,0.02177734375
192,986,-0.00025174455081999875,0.022070312499999998
193,990,-0.00025174455081999875,0.022265624999999997
194,995,-0.00025174455081999875,0.0224609375
195,1001,-0.00025174455081999875,0.02275390625
196,1007,-0.00025174455081999875,0.02294921875
197,1011,-0.00025174455081999875,0.023144531250000003
198,1016,-0.00013406475081999874,0.0234375
199,1021,-0.00013406475081999874,0.0236328125
200,1027,-0.00013406475081999874,0.023828125
201,1032,-0.00013406475081999874,0.024121093750000003
202,1037,-0.00013406475081999874,0.024316406250000002
203,1042,-0.00013406475081999874,0.024511718749999998
204,1047,-0.00013406475081999874,0.0248046875
205,1056,-0.00013406475081999874,0.0251953125
206,1064,-0.00013406475081999874,0.025585937500000003
207,1074,-0.00013406475081999874,0.02607421875
208,1080,-0.00013406475081999874,0.0263671875
209,1087,-0.00013406475081999874,0.02666015625
210,1093,-0.00013406475081999874,0.026953124999999998
211,1098,-0.00013406475081999874,0.02724609375
212,1104,-0.00013406475081999874,0.02744140625
213,1109,-0.00013406475081999874,0.027734375
214,1114,3.559029418000125e-05,0.027929687499999998
215,1119,3.559029418000125e-05,0.028222656250000002
216,1123,3.559029418000125e-05,0.02841796875
217,1128,3.559029418000125e-05,0.0287109375
218,1134,3.559029418000125e-05,0.02890625
219,1138,3.559029418000125e-05,0.029199218750000002
220,1144,3.559029418000125e-05,0.0294921875
221,1149,3.559029418000125e-05,0.0296875
222,1154,3.559029418000125e-05,0.02998046875
223,1160,3.559029418000125e-05,0.0302734375
224,1164,3.559029418000125e-05,0.030468750000000003
225,1169,3.559029418000125e-05,0.03076171875
226,1174,3.559029418000125e-05,0.03095703125
227,1179,3.559029418000125e-05,0.03125
228,1184,3.559029418000125e-05,0.03154296875
229,1189,3.559029418000125e-05,0.03173828125
230,1194,3.559029418000125e-05,0.03203125
231,1199,3.559029418000125e-05,0.03232421875
232,1205,0.00024251060918000126,0.0326171875
233,1210,0.00024251060918000126,0.03291015625
234,1215,0.00024251060918000126,0.03310546875
235,1220,0.00024251060918000126,0.0333984375
236,1226,0.00024251060918000126,0.0337890625
237,1231,0.00024251060918000126,0.034082031250000006
238,1237,0.00024251060918000126,0.034375
239,1241,0.00024251060918000126,0.0345703125
240,1246,0.00024251060918000126,0.034863281249999996
241,1252,0.00024251060918000126,0.03515625
242,1261,0.00024251060918000126,0.03564453125
243,1270,0.00024251060918000126,0.0361328125
244,1278,0.00024251060918000126,0.03662109375
245,1287,0.00024251060918000126,0.037109375
246,1292,0.00024251060918000126,0.03740234375
247,1298,0.00024251060918000126,0.0376953125
248,1303,0.0003601904091800012,0.03798828125
249,1308,0.0003601904091800012,0.038378906250000004
250,1314,0.0003601904091800012,0.038671875
251,1319,0.0003601904091800012,0.038964843750000006
252,1324,0.0003601904091800012,0.039257812499999996
253,1328,0.0003601904091800012,0.039453125
254,1334,0.0003601904091800012,0.03984375
255,1338,0.0003601904091800012,0.0400390625
256,1344,0.0003601904091800012,0.0404296875
257,1349,0.0003601904091800012,0.04072265625
258,1354,0.0003601904091800012,0.041015625
259,1359,0.0003601904091800012,0.041308593750000004
260,1364,0.0003601904091800012,0.041601562499999994
261,1369,0.0003601904091800012,0.04189453125
262,1374,0.0003601904091800012,0.0421875
263,1378,0.0003601904091800012,0.04248046875
264,1384,0.0003601904091800012,0.0427734375
265,1389,0.0003601904091800012,0.04306640625
266,1394,0.0003601904091800012,0.04345703125
267,1399,0.0005867240241800013,0.043750000000000004
268,1404,0.0005867240241800013,0.044042968749999994
269,1409,0.0005867240241800013,0.0443359375
270,1414,0.0005867240241800013,0.04462890625
271,1419,0.0005867240241800013,0.04501953125
272,1424,0.0005867240241800013,0.0453125
273,1430,0.0005867240241800013,0.04560546875
274,1435,0.0005867240241800013,0.04599609375
275,1441,0.0005867240241800013,0.04638671875
276,1446,0.0005867240241800013,0.046679687500000004
277,1457,0.0005867240241800013,0.04736328125
278,1465,0.0005867240241800013,0.0478515625
279,1471,0.0005867240241800013,0.048242187500000006
280,1478,0.0005867240241800013,0.048730468750000006
281,1483,0.0005867240241800013,0.049023437499999996
282,1487,0.0005867240241800013,0.04931640625
283,1493,0.0007612823941800013,0.04970703125
284,1497,0.0007612823941800013,0.05
285,1502,0.0007612823941800013,0.05029296875
286,1508,0.0007612823941800013,0.050683593750000006
287,1512,0.0007612823941800013,0.050976562499999996
288,1518,0.0007612823941800013,0.05126953125
289,1523,0.0007612823941800013,0.05166015625
290,1527,0.0007612823941800013,0.051953125
291,1533,0.0007612823941800013,0.05234375
292,1537,0.0007612823941800013,0.05263671875
293,1543,0.0007612823941800013,0.05302734375
294,1548,0.0007612823941800013,0.0533203125
295,1552,0.0007612823941800013,0.053613281250000006
296,1558,0.0007612823941800013,0.054003906250000004
297,1563,0.0007612823941800013,0.054296874999999994
298,1568,0.0007612823941800013,0.0546875
299,1573,0.0007612823941800013,0.055078125
300,1578,0.0007612823941800013,0.05537109375
301,1584,0.0008171802991800013,0.055859374999999996
302,1590,0.0008171802991800013,0.056249999999999994
303,1595,0.0008171802991800013,0.05654296875
304,1600,0.0008171802991800013,0.05693359375
305,1606,0.0008171802991800013,0.05732421875
306,1611,0.0008171802991800013,0.05771484375
307,1616,0.0008171802991800013,0.05810546875
308,1622,0.0008171802991800013,0.058496093750000006
309,1630,0.0008171802991800013,0.05908203125
310,1639,0.0008171802991800013,0.059765625
311,1649,0.0008171802991800013,0.0603515625
312,1654,0.0008171802991800013,0.060839843750000004
313,1663,0.0008171802991800013,0.06142578125
314,1669,0.0008171802991800013,0.0619140625
315,1674,0.0008171802991800013,0.06220703125
316,1680,0.0008789621941800012,0.0626953125
317,1685,0.0008789621941800012,0.06298828125
318,1690,0.0008789621941800012,0.06337890625
319,1696,0.0008789621941800012,0.0638671875
320,1702,0.0008789621941800012,0.06435546875
321,1708,0.0008789621941800012,0.06474609375
322,1712,0.0008789621941800012,0.0650390625
323,1717,0.0008789621941800012,0.0654296875
324,1723,0.0008789621941800012,0.06591796875
325,1729,0.0008789621941800012,0.06630859375
326,1735,0.0008789621941800012,0.066796875
327,1741,0.0008789621941800012,0.0671875
328,1746,0.0008789621941800012,0.06767578125
329,1752,0.0008789621941800012,0.06806640625
330,1758,0.0008789621941800012,0.06855468749999999
331,1764,0.0008789621941800012,0.0689453125
332,1769,0.0008789621941800012,0.0693359375
333,1775,0.0007799150291800014,0.06982421875
334,1780,0.0007799150291800014,0.07021484375
335,1786,0.0007799150291800014,0.070703125
336,1792,0.0007799150291800014,0.07119140625
337,1798,0.0007799150291800014,0.0716796875
338,1804,0.0007799150291800014,0.07216796874999999
339,1815,0.0007799150291800014,0.07294921875
340,1824,0.0007799150291800014,0.07373046875
341,1832,0.0007799150291800014,0.07431640625000001
342,1839,0.0007799150291800014,0.07490234375
343,1845,0.0007799150291800014,0.075390625
344,1850,0.0007799150291800014,0.07578125
345,1855,0.0007799150291800014,0.07626953125
346,1861,0.0007799150291800014,0.07666015625
347,1868,0.0007799150291800014,0.07724609375
348,1873,0.0008554262341800013,0.07763671875
349,1884,0.0008554262341800013,0.07851562499999999
350,1893,0.0008554262341800013,0.07929687499999999
351,1903,0.0008554262341800013,0.080078125
352,1914,0.0008554262341800013,0.0810546875
353,1927,0.0008554262341800013,0.08212890625
354,1933,0.0008554262341800013,0.08261718750000001
355,1939,0.0008554262341800013,0.08320312499999999
356,1946,0.0008554262341800013,0.08369140625
357,1951,0.0008554262341800013,0.08417968749999999
358,1962,0.0008554262341800013,0.08505859375000001
359,1973,0.0010525398991800012,0.085546875
360,1983,0.0010525398991800012,0.0869140625
361,1992,0.0010525398991800012,0.08769531250000001
362,1998,0.0010525398991800012,0.08828124999999999
363,2006,0.0010525398991800012,0.08896484375
364,2012,0.0010525398991800012,0.089453125
365,2017,0.0010525398991800012,0.08994140625000001
366,2022,0.0010525398991800012,0.0904296875
367,2028,0.0010525398991800012,0.09091796875000001
368,2034,0.0010525398991800012,0.09140625
369,2040,0.0010525398991800012,0.09189453125
370,2045,0.0010525398991800012,0.09238281250000001
371,2051,0.0010525398991800012,0.09287109375
372,2058,0.0010525398991800012,0.0935546875
373,2064,0.0012741701891800011,0.09404296875000001
374,2070,0.0012741701891800011,0.09462890624999999
375,2076,0.0012741701891800011,0.0951171875
376,2082,0.0012741701891800011,0.095703125
377,2087,0.0012741701891800011,0.09619140625
378,2093,0.0012741701891800011,0.0966796875
379,2099,0.0012741701891800011,0.09726562500000001
380,2104,0.0012741701891800011,0.09775390625
381,2116,0.0012741701891800011,0.09873046875
382,2127,0.0012741701891800011,0.0998046875
383,2134,0.0012741701891800011,0.10048828124999999
384,2142,0.0012741701891800011,0.10126953124999999
385,2148,0.0012741701891800011,0.1017578125
386,2153,0.0012741701891800011,0.10234375000000001
387,2159,0.0015046264641800013,0.10283203125
388,2165,0.0015046264641800013,0.10341796875
389,2170,0.0015046264641800013,0.10390625
390,2176,0.0015046264641800013,0.1044921875
391,2183,0.0015046264641800013,0.105078125
392,2189,0.0015046264641800013,0.1056640625
393,2194,0.0015046264641800013,0.10615234374999999
394,2199,0.0015046264641800013,0.106640625
395,2205,0.0015046264641800013,0.10722656250000001
396,2210,0.0015046264641800013,0.10771484375
397,2216,0.0015046264641800013,0.10830078125
398,2221,0.0015046264641800013,0.1087890625
399,2227,0.0015046264641800013,0.109375
400,2232,0.0015046264641800013,0.10986328125
401,2239,0.0015046264641800013,0.11044921875000001
402,2244,0.0015046264641800013,0.11103515624999999
403,2255,0.0015713116841800012,0.11210937500000001
404,2265,0.0015713116841800012,0.1130859375
405,2274,0.0015713116841800012,0.11396484375
406,2282,0.0015713116841800012,0.11474609375
407,2290,0.0015713116841800012,0.11552734375
408,2295,0.0015713116841800012,0.11601562500000001
409,2301,0.0015713116841800012,0.11669921875
410,2308,0.0015713116841800012,0.11728515625
411,2313,0.0015713116841800012,0.11787109375
412,2319,0.0015713116841800012,0.11845703125000001
413,2325,0.0015713116841800012,0.11904296874999999
414,2331,0.0015713116841800012,0.11962890625
415,2337,0.0015713116841800012,0.12021484375000001
416,2342,0.0015713116841800012,0.12080078124999999
417,2347,0.0016458422241800012,0.1212890625
418,2353,0.0016458422241800012,0.12187500000000001
419,2359,0.0016458422241800012,0.12236328125
420,2364,0.0016458422241800012,0.12294921875
421,2371,0.0016458422241800012,0.12353515625
422,2376,0.0016458422241800012,0.12412109375000001
423,2382,0.0016458422241800012,0.1248046875
424,2388,0.0016458422241800012,0.125390625
425,2394,0.0016458422241800012,0.1259765625
426,2400,0.0016458422241800012,0.12656250000000002
427,2410,0.0016458422241800012,0.1275390625
428,2420,0.0016458422241800012,0.128515625
429,2428,0.0016458422241800012,0.12939453125
430,2437,0.0016458422241800012,0.1302734375
