,Time,Force (Newtons),Distance (millimeters)
0,1,0.0005292511711900014,9.765625e-05
1,7,0.0005292511711900014,9.765625e-05
2,12,0.0005292511711900014,9.765625e-05
3,17,0.0005292511711900014,9.765625e-05
4,22,0.0005292511711900014,9.765625e-05
5,27,0.0005292511711900014,9.765625e-05
6,32,0.0005292511711900014,9.765625e-05
7,37,0.0005292511711900014,9.765625e-05
8,42,0.0005292511711900014,0.0001953125
9,48,0.0005292511711900014,0.0001953125
10,53,0.0005292511711900014,0.0001953125
11,58,0.0005292511711900014,0.0001953125
12,64,0.0005292511711900014,0.0001953125
13,73,0.0005292511711900014,0.00029296875
14,83,0.0005292511711900014,0.00029296875
15,91,0.0005527871311900015,0.000390625
16,98,0.0005527871311900015,0.000390625
17,104,0.0005527871311900015,0.000390625
18,112,0.0005527871311900015,0.00048828125
19,116,0.0005527871311900015,0.00048828125
20,122,0.0005527871311900015,0.00048828125
21,128,0.0005527871311900015,0.0005859375
22,134,0.0005527871311900015,0.0005859375
23,139,0.0005527871311900015,0.0006835937500000001
24,144,0.0005527871311900015,0.0006835937500000001
25,149,0.0005527871311900015,0.0006835937500000001
26,155,0.0005527871311900015,0.00078125
27,160,0.0005527871311900015,0.00078125
28,165,0.0005527871311900015,0.0008789062499999999
29,170,0.0005527871311900015,0.0008789062499999999
30,175,0.0005527871311900015,0.0008789062499999999
31,180,0.0006135883611900015,0.0009765625
32,186,0.0006135883611900015,0.0009765625
33,191,0.0006135883611900015,0.00107421875
34,197,0.0006135883611900015,0.00107421875
35,202,0.0006135883611900015,0.001171875
36,208,0.0006135883611900015,0.001171875
37,213,0.0006135883611900015,0.00126953125
38,218,0.0006135883611900015,0.0013671875000000001
39,229,0.0006135883611900015,0.00146484375
40,242,0.0006135883611900015,0.0015625
41,255,0.0006135883611900015,0.0017578124999999998
42,263,0.0006135883611900015,0.00185546875
43,268,0.0006135883611900015,0.001953125
44,273,0.0006135883611900015,0.001953125
45,278,0.0006184916861900014,0.00205078125
46,287,0.0006184916861900014,0.0021484375
47,293,0.0006184916861900014,0.0022460937500000003
48,298,0.0006184916861900014,0.00234375
49,304,0.0006184916861900014,0.00234375
50,309,0.0006184916861900014,0.00244140625
51,315,0.0006184916861900014,0.0025390625
52,321,0.0006184916861900014,0.00263671875
53,327,0.0006184916861900014,0.0027343750000000003
54,333,0.0006184916861900014,0.00283203125
55,338,0.0006184916861900014,0.0029296875
56,345,0.0006184916861900014,0.00302734375
57,350,0.0006184916861900014,0.003125
58,355,0.0006184916861900014,0.003125
59,360,0.0006184916861900014,0.0032226562500000003
60,365,0.0006184916861900014,0.0033203125000000003
61,371,0.0005763230911900014,0.00341796875
62,376,0.0005763230911900014,0.0035156249999999997
63,381,0.0005763230911900014,0.00361328125
64,386,0.0005763230911900014,0.0037109375
65,391,0.0005763230911900014,0.0038085937500000003
66,395,0.0005763230911900014,0.00390625
67,400,0.0005763230911900014,0.00390625
68,405,0.0005763230911900014,0.00400390625
69,410,0.0005763230911900014,0.0041015625
70,415,0.0005763230911900014,0.00419921875
71,420,0.0005763230911900014,0.004296875
72,425,0.0005763230911900014,0.00439453125
73,430,0.0005763230911900014,0.0044921875000000005
74,440,0.0005763230911900014,0.0046875
75,448,0.0005763230911900014,0.0048828125
76,458,0.0005763230911900014,0.005078125
77,464,0.0005763230911900014,0.005175781250000001
78,470,0.0005194445211900014,0.00537109375
79,476,0.0005194445211900014,0.0054687500000000005
80,481,0.0005194445211900014,0.005566406249999999
81,486,0.0005194445211900014,0.0056640625
82,491,0.0005194445211900014,0.0057617187499999995
83,496,0.0005194445211900014,0.005859375
84,501,0.0005194445211900014,0.0060546875
85,506,0.0005194445211900014,0.00615234375
86,511,0.0005194445211900014,0.00625
87,516,0.0005194445211900014,0.00634765625
88,521,0.0005194445211900014,0.0064453125000000005
89,526,0.0005194445211900014,0.006640625000000001
90,531,0.0005194445211900014,0.0067382812499999995
91,536,0.0005194445211900014,0.0068359375
92,541,0.0005194445211900014,0.00693359375
93,546,0.0005194445211900014,0.007031249999999999
94,551,0.0005194445211900014,0.0072265625
95,556,0.0005194445211900014,0.00732421875
96,562,0.0005341544961900014,0.007421875
97,567,0.0005341544961900014,0.007617187500000001
98,572,0.0005341544961900014,0.00771484375
99,584,0.0005341544961900014,0.0080078125
100,595,0.0005341544961900014,0.00830078125
101,602,0.0005341544961900014,0.00849609375
102,610,0.0005341544961900014,0.00869140625
103,615,0.0005341544961900014,0.00888671875
104,620,0.0005341544961900014,0.008984375000000001
105,625,0.0005341544961900014,0.009179687499999999
106,630,0.0005341544961900014,0.00927734375
107,635,0.0005341544961900014,0.00947265625
108,640,0.0005341544961900014,0.0095703125
109,645,0.0005341544961900014,0.00966796875
110,650,0.0005341544961900014,0.00986328125
111,655,0.0007126355261900015,0.01005859375
112,660,0.0007126355261900015,0.01015625
113,665,0.0007126355261900015,0.01025390625
114,670,0.0007126355261900015,0.010449218750000001
115,675,0.0007126355261900015,0.01064453125
116,681,0.0007126355261900015,0.0107421875
117,686,0.0007126355261900015,0.010937500000000001
118,691,0.0007126355261900015,0.011132812499999999
119,737,0.0007126355261900015,0.01240234375
120,752,0.0009950670461900013,0.0130859375
121,760,0.0009950670461900013,0.013281250000000001
122,769,0.0009950670461900013,0.013574218749999999
123,774,0.0009950670461900013,0.01376953125
124,779,0.0009950670461900013,0.013964843749999999
125,784,0.0009950670461900013,0.01416015625
126,789,0.0009950670461900013,0.01435546875
127,794,0.0009950670461900013,0.014453125
128,799,0.0009950670461900013,0.0146484375
129,804,0.0009950670461900013,0.01484375
130,809,0.0009950670461900013,0.0150390625
131,815,0.0009950670461900013,0.015234375000000001
132,820,0.0009950670461900013,0.0154296875
133,825,0.0009950670461900013,0.015625
134,830,0.0009950670461900013,0.015820312500000003
135,835,0.0009950670461900013,0.016015625
136,840,0.0009950670461900013,0.01611328125
137,851,0.0013628164211900015,0.0166015625
138,859,0.0013628164211900015,0.01689453125
139,867,0.0013628164211900015,0.0171875
140,874,0.0013628164211900015,0.01748046875
141,879,0.0013628164211900015,0.01767578125
142,884,0.0013628164211900015,0.01787109375
143,889,0.0013628164211900015,0.01806640625
144,895,0.0013628164211900015,0.018261718750000003
145,901,0.0013628164211900015,0.0185546875
146,906,0.0013628164211900015,0.01875
147,911,0.0013628164211900015,0.0189453125
148,916,0.0013628164211900015,0.019140625
149,921,0.0013628164211900015,0.0193359375
150,926,0.0013628164211900015,0.01953125
151,931,0.0013628164211900015,0.0197265625
152,936,0.0013628164211900015,0.019921875
153,941,0.0018668782311900012,0.0201171875
154,946,0.0018668782311900012,0.02041015625
155,952,0.0018668782311900012,0.020605468749999998
156,957,0.0018668782311900012,0.020800781249999997
157,962,0.0018668782311900012,0.02099609375
158,971,0.0018668782311900012,0.021484375
159,980,0.0018668782311900012,0.02177734375
160,988,0.0018668782311900012,0.02216796875
161,994,0.0018668782311900012,0.0224609375
162,1000,0.0018668782311900012,0.02265625
163,1006,0.0018668782311900012,0.02294921875
164,1011,0.0018668782311900012,0.023144531250000003
165,1016,0.0018668782311900012,0.0234375
166,1021,0.0018668782311900012,0.0236328125
167,1026,0.0018668782311900012,0.023828125
168,1031,0.0018668782311900012,0.024121093750000003
169,1036,0.0024366445961900014,0.024316406250000002
170,1041,0.0024366445961900014,0.024511718749999998
171,1046,0.0024366445961900014,0.0248046875
172,1051,0.0024366445961900014,0.025
173,1056,0.0024366445961900014,0.0251953125
174,1064,0.0024366445961900014,0.025585937500000003
175,1069,0.0024366445961900014,0.02587890625
176,1075,0.0024366445961900014,0.02607421875
177,1080,0.0024366445961900014,0.0263671875
178,1085,0.0024366445961900014,0.026562500000000003
179,1090,0.0024366445961900014,0.02685546875
180,1100,0.0024366445961900014,0.02724609375
181,1110,0.0024366445961900014,0.02783203125
182,1119,0.0024366445961900014,0.028222656250000002
183,1125,0.0024366445961900014,0.028515625
184,1132,0.0030770188411900017,0.02890625
185,1137,0.0030770188411900017,0.0291015625
186,1142,0.0030770188411900017,0.029394531249999998
187,1148,0.0030770188411900017,0.0296875
188,1153,0.0030770188411900017,0.02998046875
189,1158,0.0030770188411900017,0.03017578125
190,1164,0.0030770188411900017,0.030468750000000003
191,1169,0.0030770188411900017,0.03076171875
192,1174,0.0030770188411900017,0.0310546875
193,1179,0.0030770188411900017,0.03125
194,1184,0.0030770188411900017,0.03154296875
195,1189,0.0030770188411900017,0.031835937499999994
196,1196,0.0030770188411900017,0.03212890625
197,1201,0.0030770188411900017,0.032421874999999996
198,1207,0.0030770188411900017,0.03271484375
199,1217,0.0030770188411900017,0.03330078125
200,1228,0.0038066336011900012,0.03388671875
201,1233,0.0038066336011900012,0.0341796875
202,1241,0.0038066336011900012,0.0345703125
203,1246,0.0038066336011900012,0.034863281249999996
204,1251,0.0038066336011900012,0.03515625
205,1256,0.0038066336011900012,0.03544921875
206,1261,0.0038066336011900012,0.03564453125
207,1267,0.0038066336011900012,0.03603515625
208,1272,0.0038066336011900012,0.036328125
209,1277,0.0038066336011900012,0.03662109375
210,1282,0.0038066336011900012,0.03681640625
211,1287,0.0038066336011900012,0.037109375
212,1292,0.0038066336011900012,0.03740234375
213,1298,0.0038066336011900012,0.0376953125
214,1303,0.0038066336011900012,0.0380859375
215,1308,0.0038066336011900012,0.03828125
216,1313,0.0038066336011900012,0.038671875
217,1318,0.0038066336011900012,0.038964843750000006
218,1323,0.0047068840711900015,0.039257812499999996
219,1328,0.0047068840711900015,0.039453125
220,1341,0.0047068840711900015,0.040234375
221,1350,0.0047068840711900015,0.04072265625
222,1357,0.0047068840711900015,0.041210937499999996
223,1365,0.0047068840711900015,0.041699218749999996
224,1370,0.0047068840711900015,0.0419921875
225,1375,0.0047068840711900015,0.04228515625
226,1380,0.0047068840711900015,0.042578125
227,1385,0.0047068840711900015,0.04287109375
228,1391,0.0047068840711900015,0.04326171875
229,1397,0.0047068840711900015,0.043652343749999996
230,1402,0.0047068840711900015,0.0439453125
231,1408,0.0047068840711900015,0.0443359375
232,1413,0.0047068840711900015,0.04462890625
233,1418,0.005836610151190001,0.044921875
234,1423,0.005836610151190001,0.04521484375
235,1429,0.005836610151190001,0.04560546875
236,1434,0.005836610151190001,0.0458984375
237,1439,0.005836610151190001,0.046289062500000006
238,1445,0.005836610151190001,0.046582031249999996
239,1451,0.005836610151190001,0.046972656249999994
240,1457,0.005836610151190001,0.04736328125
241,1467,0.005836610151190001,0.04794921875
242,1478,0.005836610151190001,0.048730468750000006
243,1488,0.005836610151190001,0.04931640625
244,1494,0.005836610151190001,0.04970703125
245,1500,0.005836610151190001,0.0501953125
246,1506,0.005836610151190001,0.0505859375
247,1512,0.007311530311190001,0.050976562499999996
248,1517,0.007311530311190001,0.05126953125
249,1522,0.007311530311190001,0.05166015625
250,1527,0.007311530311190001,0.051953125
251,1532,0.007311530311190001,0.05234375
252,1538,0.007311530311190001,0.052734375
253,1543,0.007311530311190001,0.05302734375
254,1548,0.007311530311190001,0.053417968749999996
255,1553,0.007311530311190001,0.0537109375
256,1558,0.007311530311190001,0.0541015625
257,1564,0.007311530311190001,0.05439453125
258,1569,0.007311530311190001,0.05478515625
259,1574,0.007311530311190001,0.05517578125
260,1580,0.007311530311190001,0.055566406250000006
261,1585,0.007311530311190001,0.055957031250000004
262,1597,0.007311530311190001,0.056640625
263,1606,0.009086533961190002,0.05732421875
264,1614,0.009086533961190002,0.05791015625
265,1622,0.009086533961190002,0.058496093750000006
266,1627,0.009086533961190002,0.058886718750000004
267,1632,0.009086533961190002,0.05927734375
268,1637,0.009086533961190002,0.0595703125
269,1642,0.009086533961190002,0.0599609375
270,1647,0.009086533961190002,0.0603515625
271,1652,0.009086533961190002,0.06064453125
272,1658,0.009086533961190002,0.06103515625
273,1663,0.009086533961190002,0.06142578125
274,1669,0.009086533961190002,0.0619140625
275,1674,0.009086533961190002,0.0623046875
276,1679,0.009086533961190002,0.06259765625
277,1684,0.009086533961190002,0.06298828125
278,1690,0.009086533961190002,0.06337890625
279,1695,0.009086533961190002,0.0638671875
280,1700,0.009086533961190002,0.06416015625
281,1705,0.010904686871190002,0.06455078125000001
282,1711,0.010904686871190002,0.0650390625
283,1723,0.010904686871190002,0.06591796875
284,1733,0.010904686871190002,0.0666015625
285,1740,0.010904686871190002,0.0671875
286,1748,0.010904686871190002,0.0677734375
287,1753,0.010904686871190002,0.06816406250000001
288,1758,0.010904686871190002,0.06855468749999999
289,1763,0.010904686871190002,0.0689453125
290,1768,0.010904686871190002,0.0693359375
291,1774,0.010904686871190002,0.06972656249999999
292,1779,0.010904686871190002,0.07021484375
293,1785,0.010904686871190002,0.07060546875000001
294,1790,0.010904686871190002,0.07109375
295,1795,0.010904686871190002,0.071484375
296,1800,0.012958199381190002,0.07187500000000001
297,1805,0.012958199381190002,0.072265625
298,1811,0.012958199381190002,0.07265625
299,1817,0.012958199381190002,0.07314453125
300,1822,0.012958199381190002,0.07353515625
301,1827,0.012958199381190002,0.0740234375
302,1832,0.012958199381190002,0.0744140625
303,1841,0.012958199381190002,0.0748046875
304,1852,0.012958199381190002,0.0759765625
305,1862,0.012958199381190002,0.07675781250000001
306,1868,0.012958199381190002,0.07724609375
307,1874,0.012958199381190002,0.07783203125
308,1879,0.012958199381190002,0.078125
309,1884,0.012958199381190002,0.07861328125
310,1890,0.012958199381190002,0.07900390625
311,1896,0.015369654616190002,0.0794921875
312,1901,0.015369654616190002,0.07998046874999999
313,1907,0.015369654616190002,0.08046875
314,1912,0.015369654616190002,0.08095703124999999
315,1917,0.015369654616190002,0.08134765625
316,1922,0.015369654616190002,0.08173828124999999
317,1927,0.015369654616190002,0.0822265625
318,1932,0.015369654616190002,0.08261718750000001
319,1938,0.015369654616190002,0.08310546875
320,1943,0.015369654616190002,0.08349609375
321,1949,0.015369654616190002,0.083984375
322,1953,0.015369654616190002,0.084375
323,1958,0.015369654616190002,0.084765625
324,1969,0.015369654616190002,0.0857421875
325,1978,0.015369654616190002,0.0865234375
326,1986,0.015369654616190002,0.08720703125
327,1994,0.01810080664119,0.087890625
328,2000,0.01810080664119,0.08837890625
329,2005,0.01810080664119,0.0888671875
330,2010,0.01810080664119,0.0892578125
331,2016,0.01810080664119,0.08984375
332,2021,0.01810080664119,0.09033203125
333,2027,0.01810080664119,0.0908203125
334,2032,0.01810080664119,0.09130859375
335,2039,0.01810080664119,0.09189453125
336,2046,0.01810080664119,0.09248046875
337,2053,0.01810080664119,0.09306640625
338,2060,0.01810080664119,0.09375
339,2066,0.01810080664119,0.0943359375
340,2072,0.01810080664119,0.09482421875000001
341,2079,0.01810080664119,0.09541015624999999
342,2088,0.02125658661119,0.0962890625
343,2097,0.02125658661119,0.09707031249999999
344,2106,0.02125658661119,0.09785156249999999
345,2112,0.02125658661119,0.09853515625
346,2118,0.02125658661119,0.0990234375
347,2123,0.02125658661119,0.09951171874999999
348,2129,0.02125658661119,0.10009765625
349,2135,0.02125658661119,0.1005859375
350,2140,0.02125658661119,0.10107421875
351,2145,0.02125658661119,0.1015625
352,2150,0.02125658661119,0.10205078125
353,2155,0.02125658661119,0.1025390625
354,2161,0.02125658661119,0.10302734375
355,2167,0.02125658661119,0.10361328125
356,2172,0.02125658661119,0.1041015625
357,2177,0.02486445314619,0.10458984375000001
358,2182,0.02486445314619,0.105078125
359,2187,0.02486445314619,0.10556640625000001
360,2192,0.02486445314619,0.1060546875
361,2202,0.02486445314619,0.10693359375
362,2212,0.02486445314619,0.10791015625
363,2221,0.02486445314619,0.1087890625
364,2228,0.02486445314619,0.10947265625000001
365,2233,0.02486445314619,0.1099609375
366,2238,0.02486445314619,0.11044921875000001
367,2244,0.02486445314619,0.1109375
368,2250,0.02486445314619,0.11162109375
369,2256,0.02486445314619,0.11220703125
370,2262,0.02486445314619,0.11269531249999999
371,2267,0.02486445314619,0.11328125
372,2273,0.02881162977119,0.1138671875
373,2278,0.02881162977119,0.114453125
374,2284,0.02881162977119,0.11494140624999999
375,2289,0.02881162977119,0.11552734375
376,2295,0.02881162977119,0.11601562500000001
377,2300,0.02881162977119,0.11660156249999999
378,2306,0.02881162977119,0.11708984375
379,2311,0.02881162977119,0.11767578125
380,2319,0.02881162977119,0.11835937499999999
381,2330,0.02881162977119,0.11953125
382,2341,0.02881162977119,0.120703125
383,2347,0.02881162977119,0.1212890625
384,2354,0.02881162977119,0.12197265625
385,2360,0.02881162977119,0.12255859375
386,2366,0.02881162977119,0.12314453125
387,2372,0.03308732917119,0.12373046875
388,2377,0.03308732917119,0.12431640625000001
389,2383,0.03308732917119,0.12490234374999999
390,2388,0.03308732917119,0.125390625
391,2394,0.03308732917119,0.1259765625
392,2399,0.03308732917119,0.12646484375
393,2404,0.03308732917119,0.12705078125
394,2410,0.03308732917119,0.1275390625
395,2415,0.03308732917119,0.128125
396,2421,0.03308732917119,0.12861328125
397,2426,0.03308732917119,0.12919921875
398,2431,0.03308732917119,0.12968749999999998
399,2438,0.03308732917119,0.1302734375
400,2449,0.03308732917119,0.13144531250000002
401,2459,0.03308732917119,0.132421875
402,2466,0.03783472843619,0.133203125
403,2474,0.03783472843619,0.13398437500000002
404,2480,0.03783472843619,0.13457031249999998
405,2485,0.03783472843619,0.13515625
406,2491,0.03783472843619,0.1357421875
407,2498,0.03783472843619,0.13632812500000002
408,2503,0.03783472843619,0.1369140625
409,2509,0.03783472843619,0.1375
410,2515,0.03783472843619,0.1380859375
411,2521,0.03783472843619,0.138671875
412,2527,0.03783472843619,0.1392578125
413,2533,0.03783472843619,0.13984375
414,2539,0.03783472843619,0.1404296875
415,2544,0.03783472843619,0.141015625
416,2550,0.03783472843619,0.1416015625
417,2556,0.03783472843619,0.14208984375
418,2563,0.04283219727619,0.14267578125
419,2573,0.04283219727619,0.14384765625
420,2581,0.04283219727619,0.14462890625
421,2588,0.04283219727619,0.14541015625
422,2596,0.04283219727619,0.14619140625000002
423,2601,0.04283219727619,0.14677734374999998
424,2607,0.04283219727619,0.147265625
425,2641,0.04283219727619,0.15068359375
426,2647,0.04283219727619,0.15126953125
427,2654,0.04790909998119,0.15205078125
428,2660,0.04790909998119,0.1525390625
429,2666,0.04790909998119,0.153125
430,2671,0.04790909998119,0.1537109375
431,2677,0.04790909998119,0.154296875
432,2682,0.04790909998119,0.15478515625
433,2688,0.04790909998119,0.15537109375
434,2694,0.04790909998119,0.15595703125000002
435,2700,0.04790909998119,0.15654296875
436,2706,0.04790909998119,0.15712890625
437,2711,0.04790909998119,0.15771484375
438,2720,0.04790909998119,0.158203125
439,2729,0.04790909998119,0.15947265624999998
440,2739,0.04790909998119,0.16044921875
441,2746,0.04790909998119,0.1611328125
442,2752,0.05329687349118999,0.16181640625
443,2758,0.05329687349118999,0.16230468750000002
444,2763,0.05329687349118999,0.162890625
445,2770,0.05329687349118999,0.16357421875
446,2776,0.05329687349118999,0.16416015625
447,2782,0.05329687349118999,0.16474609375000002
448,2789,0.05329687349118999,0.16552734375
449,2795,0.05329687349118999,0.166015625
450,2801,0.05329687349118999,0.1666015625
451,2807,0.05329687349118999,0.16728515624999998
452,2813,0.05329687349118999,0.1677734375
453,2819,0.05329687349118999,0.16845703125
454,2824,0.05329687349118999,0.16904296875
455,2830,0.05329687349118999,0.16953125
456,2836,0.05329687349118999,0.17011718750000002
457,2842,0.05859050316119,0.170703125
